{
  "AcquisitionMatrixPE": 74,
  "AcquisitionNumber": 1,
  "AcquisitionTime": "15:18:13.317500",
  "BandwidthPerPixelPhaseEncode": 25.497,
  "BaseResolution": 74,
  "BodyPartExamined": "BRAIN",
  "ConsistencyInfo": "N4_VE11C_LATEST_20160120",
  "ConversionSoftware": "dcm2niix",
  "ConversionSoftwareVersion": "v1.0.20190410  GCC6.3.0",
  "DerivedVendorReportedEchoSpacing": 0.000530004,
  "DeviceSerialNumber": "45031",
  "DwellTime": 3e-06,
  "EchoTime": 0.028,
  "EchoTrainLength": 74,
  "EffectiveEchoSpacing": 0.000530004,
  "FlipAngle": 80,
  "ImageOrientationPatientDICOM": [0.996833, 0.029571, -0.0738211, -0.0527652, 0.940461, -0.335782],
  "ImageType": [
    "ORIGINAL",
    "PRIMARY",
    "M",
    "ND",
    "MOSAIC"
],
  "ImagingFrequency": 123.25,
  "InPlanePhaseEncodingDirectionDICOM": "COL",
  "InstitutionAddress": "Washington_and_Faculty_Rd._-_Building_25_25_Princeton_NJ_US_08540",
  "InstitutionName": "Princeton_University_-_Neuroscience_Institute",
  "InstitutionalDepartmentName": "Department",
  "MRAcquisitionType": "2D",
  "MagneticFieldStrength": 3,
  "Manufacturer": "Siemens",
  "ManufacturersModelName": "Skyra",
  "Modality": "MR",
  "MultibandAccelerationFactor": 2,
  "PartialFourier": 1,
  "PatientPosition": "HFS",
  "PercentPhaseFOV": 100,
  "PhaseEncodingDirection": "j-",
  "PhaseEncodingSteps": 74,
  "PhaseResolution": 1,
  "PixelBandwidth": 2250,
  "ProcedureStepDescription": "NormaL_Robert_Tangrams",
  "ProtocolName": "func_task-PostExposure_run-01",
  "PulseSequenceDetails": "%SiemensSeq%_ep2d_bold",
  "ReceiveCoilActiveElements": "HC1-7",
  "ReceiveCoilName": "HeadNeck_64",
  "ReconMatrixPE": 74,
  "RefLinesPE": 12,
  "RepetitionTime": 1.5,
  "SAR": 0.083102,
  "ScanOptions": "FS",
  "ScanningSequence": "EP",
  "SequenceName": "_epfid2d1_74",
  "SequenceVariant": "SK",
  "SeriesDescription": "func_task-PostExposure_run-01",
  "SeriesNumber": 15,
  "ShimSetting": [3343, 8900, 9165, 349, 101, -37, 106, 189],
  "SliceThickness": 3,
  "SliceTiming": [0.7075, 0, 0.7725, 0.065, 0.8375, 0.1275, 0.9, 0.1925, 0.965, 0.2575, 1.03, 0.3225, 1.0925, 0.385, 1.1575, 0.45, 1.2225, 0.515, 1.2875, 0.58, 1.35, 0.6425, 1.415, 0.7075, 0, 0.7725, 0.065, 0.8375, 0.1275, 0.9, 0.1925, 0.965, 0.2575, 1.03, 0.3225, 1.0925, 0.385, 1.1575, 0.45, 1.2225, 0.515, 1.2875, 0.58, 1.35, 0.6425, 1.415],
  "SoftwareVersions": "syngo_MR_E11",
  "SpacingBetweenSlices": 3,
  "StationName": "AWP45031",
  "TaskName": "PostExposure",
  "TotalReadoutTime": 0.0386903,
  "TxRefAmp": 317.317,
  "dcmmeta_affine": [
    [-2.9904990196228027, -0.1582956463098526, -0.1784893274307251, 116.68746948242188],
    [-0.08871295303106308, 2.821382522583008, -1.0158398151397705, -101.64599609375],
    [-0.22146323323249817, 1.0073444843292236, 2.8171281814575195, -110.85843658447266],
    [0.0, 0.0, 0.0, 1.0]
],
  "dcmmeta_reorient_transform": [
    [0.0, -1.0, 0.0, 73.0],
    [1.0, 0.0, 0.0, 0.0],
    [0.0, 0.0, 1.0, 0.0],
    [0.0, 0.0, 0.0, 1.0]
],
  "dcmmeta_shape": [74, 74, 46, 171],
  "dcmmeta_slice_dim": 2,
  "dcmmeta_version": 0.6,
  "global": {
    "const": {
      "AcquisitionMatrix": [74, 0, 0, 74],
      "AngioFlag": "N",
      "BitsAllocated": 16,
      "BitsStored": 12,
      "BodyPartExamined": "BRAIN",
      "Columns": 518,
      "EchoNumbers": 1,
      "EchoTime": 28.0,
      "EchoTrainLength": 74,
      "FlipAngle": 80.0,
      "HighBit": 11,
      "ImageOrientationPatient": [0.99683298753375, 0.02957098451586, -0.0738210799115, -0.0527652144605, 0.9404608526549, -0.3357815015253],
      "ImagePositionPatient": [-733.88102583282, -750.35613209685, 235.47302828613],
      "ImageType": [
        "ORIGINAL",
        "PRIMARY",
        "M",
        "ND",
        "MOSAIC"
],
      "ImagedNucleus": "1H",
      "ImagingFrequency": 123.250323,
      "InPlanePhaseEncodingDirection": "COL",
      "MRAcquisitionType": "2D",
      "MagneticFieldStrength": 3.0,
      "Manufacturer": "SIEMENS",
      "ManufacturerModelName": "Skyra",
      "Modality": "MR",
      "NumberOfAverages": 1.0,
      "NumberOfPhaseEncodingSteps": 74,
      "PercentPhaseFieldOfView": 100.0,
      "PercentSampling": 100.0,
      "PerformedProcedureStepStartTime": "134525.137000",
      "PhotometricInterpretation": "MONOCHROME2",
      "PixelBandwidth": 2250.0,
      "PixelRepresentation": 0,
      "PixelSpacing": [3.0, 3.0],
      "ProtocolName": "func_task-PostExposure_run-01",
      "RepetitionTime": 1500.0,
      "Rows": 518,
      "SAR": 0.08310196052979,
      "SamplesPerPixel": 1,
      "ScanOptions": "FS",
      "ScanningSequence": "EP",
      "SequenceName": "*epfid2d1_74",
      "SequenceVariant": "SK",
      "SeriesDescription": "func_task-PostExposure_run-01",
      "SeriesNumber": 15,
      "SeriesTime": "151815.329000",
      "SliceLocation": -76.624617686409,
      "SliceThickness": 3.0,
      "SmallestImagePixelValue": 0,
      "SoftwareVersions": "syngo MR E11",
      "SpacingBetweenSlices": 2.999999918521,
      "SpecificCharacterSet": "ISO_IR 100",
      "StudyID": "1",
      "StudyTime": "134525.059000",
      "TransmitCoilName": "Body",
      "VariableFlipAngleFlag": "N",
      "WindowCenterWidthExplanation": "Algo1",
      "dBdt": 0.0},
    "slices": {}
  },
  "time": {
    "samples": {
      "AcquisitionNumber": [1, 2, 3, 4, 5, 6, 7, 8, 9, 10, 11, 12, 13, 14, 15, 16, 17, 18, 19, 20, 21, 22, 23, 24, 25, 26, 27, 28, 29, 30, 31, 32, 33, 34, 35, 36, 37, 38, 39, 40, 41, 42, 43, 44, 45, 46, 47, 48, 49, 50, 51, 52, 53, 54, 55, 56, 57, 58, 59, 60, 61, 62, 63, 64, 65, 66, 67, 68, 69, 70, 71, 72, 73, 74, 75, 76, 77, 78, 79, 80, 81, 82, 83, 84, 85, 86, 87, 88, 89, 90, 91, 92, 93, 94, 95, 96, 97, 98, 99, 100, 101, 102, 103, 104, 105, 106, 107, 108, 109, 110, 111, 112, 113, 114, 115, 116, 117, 118, 119, 120, 121, 122, 123, 124, 125, 126, 127, 128, 129, 130, 131, 132, 133, 134, 135, 136, 137, 138, 139, 140, 141, 142, 143, 144, 145, 146, 147, 148, 149, 150, 151, 152, 153, 154, 155, 156, 157, 158, 159, 160, 161, 162, 163, 164, 165, 166, 167, 168, 169, 170, 171],
      "AcquisitionTime": ["151813.317500", "151814.817500", "151816.317500", "151817.817500", "151819.317500", "151820.817500", "151822.317500", "151823.817500", "151825.317500", "151826.817500", "151828.317500", "151829.817500", "151831.317500", "151832.817500", "151834.317500", "151835.817500", "151837.317500", "151838.817500", "151840.317500", "151841.817500", "151843.317500", "151844.817500", "151846.317500", "151847.817500", "151849.317500", "151850.817500", "151852.317500", "151853.817500", "151855.317500", "151856.817500", "151858.317500", "151859.817500", "151901.317500", "151902.817500", "151904.317500", "151905.817500", "151907.317500", "151908.817500", "151910.317500", "151911.817500", "151913.317500", "151914.817500", "151916.317500", "151917.817500", "151919.317500", "151920.817500", "151922.317500", "151923.817500", "151925.317500", "151926.817500", "151928.317500", "151929.817500", "151931.317500", "151932.817500", "151934.317500", "151935.817500", "151937.317500", "151938.817500", "151940.317500", "151941.817500", "151943.317500", "151944.817500", "151946.317500", "151947.817500", "151949.317500", "151950.817500", "151952.317500", "151953.817500", "151955.317500", "151956.817500", "151958.317500", "151959.817500", "152001.317500", "152002.817500", "152004.317500", "152005.817500", "152007.317500", "152008.817500", "152010.317500", "152011.817500", "152013.317500", "152014.817500", "152016.317500", "152017.817500", "152019.317500", "152020.817500", "152022.317500", "152023.817500", "152025.317500", "152026.817500", "152028.317500", "152029.817500", "152031.317500", "152032.817500", "152034.317500", "152035.817500", "152037.317500", "152038.817500", "152040.317500", "152041.817500", "152043.317500", "152044.817500", "152046.317500", "152047.817500", "152049.317500", "152050.817500", "152052.317500", "152053.817500", "152055.317500", "152056.817500", "152058.317500", "152059.817500", "152101.317500", "152102.817500", "152104.317500", "152105.817500", "152107.317500", "152108.817500", "152110.317500", "152111.817500", "152113.317500", "152114.817500", "152116.317500", "152117.817500", "152119.317500", "152120.817500", "152122.317500", "152123.817500", "152125.317500", "152126.817500", "152128.317500", "152129.817500", "152131.317500", "152132.817500", "152134.317500", "152135.817500", "152137.317500", "152138.817500", "152140.317500", "152141.817500", "152143.317500", "152144.817500", "152146.317500", "152147.817500", "152149.317500", "152150.817500", "152152.317500", "152153.817500", "152155.317500", "152156.817500", "152158.317500", "152159.817500", "152201.317500", "152202.817500", "152204.317500", "152205.817500", "152207.317500", "152208.817500", "152210.317500", "152211.817500", "152213.317500", "152214.817500", "152216.317500", "152217.817500", "152219.317500", "152220.817500", "152222.317500", "152223.817500", "152225.317500", "152226.817500", "152228.317500"],
      "ContentTime": ["151815.332000", "151816.828000", "151818.328000", "151819.828000", "151821.328000", "151822.828000", "151824.328000", "151825.828000", "151827.328000", "151828.828000", "151830.328000", "151831.828000", "151833.328000", "151834.828000", "151836.328000", "151837.828000", "151839.328000", "151840.828000", "151842.328000", "151843.828000", "151845.328000", "151846.828000", "151848.328000", "151849.828000", "151851.328000", "151852.828000", "151854.328000", "151855.828000", "151857.328000", "151858.828000", "151900.328000", "151901.828000", "151903.328000", "151904.828000", "151906.328000", "151907.828000", "151909.328000", "151910.828000", "151912.328000", "151913.828000", "151915.328000", "151916.828000", "151918.328000", "151919.828000", "151921.328000", "151922.837000", "151924.328000", "151925.828000", "151927.328000", "151928.828000", "151930.328000", "151931.828000", "151933.328000", "151934.828000", "151936.328000", "151937.828000", "151939.328000", "151940.828000", "151942.328000", "151943.828000", "151945.328000", "151946.828000", "151948.328000", "151949.828000", "151951.328000", "151952.828000", "151954.328000", "151955.828000", "151957.328000", "151958.828000", "152000.328000", "152001.828000", "152003.328000", "152004.828000", "152006.328000", "152007.828000", "152009.328000", "152010.828000", "152012.328000", "152013.828000", "152015.328000", "152016.828000", "152018.328000", "152019.828000", "152021.328000", "152022.828000", "152024.328000", "152025.828000", "152027.328000", "152028.828000", "152030.328000", "152031.828000", "152033.328000", "152034.828000", "152036.328000", "152037.828000", "152039.328000", "152040.828000", "152042.328000", "152043.828000", "152045.328000", "152046.828000", "152048.328000", "152049.828000", "152051.328000", "152052.828000", "152054.328000", "152055.828000", "152057.328000", "152058.828000", "152100.328000", "152101.828000", "152103.328000", "152104.828000", "152106.328000", "152107.828000", "152109.328000", "152110.828000", "152112.328000", "152113.828000", "152115.328000", "152116.828000", "152118.328000", "152119.828000", "152121.328000", "152122.828000", "152124.328000", "152125.828000", "152127.328000", "152128.828000", "152130.328000", "152131.828000", "152133.328000", "152134.828000", "152136.328000", "152137.828000", "152139.328000", "152140.828000", "152142.328000", "152143.828000", "152145.328000", "152146.828000", "152148.328000", "152149.828000", "152151.328000", "152152.828000", "152154.328000", "152155.828000", "152157.328000", "152158.828000", "152200.328000", "152201.828000", "152203.328000", "152204.828000", "152206.328000", "152207.828000", "152209.328000", "152210.828000", "152212.328000", "152213.828000", "152215.328000", "152216.828000", "152218.328000", "152219.828000", "152221.328000", "152222.828000", "152224.328000", "152225.828000", "152227.328000", "152228.828000", "152229.997000"],
      "InstanceCreationTime": ["151815.332000", "151816.828000", "151818.328000", "151819.828000", "151821.328000", "151822.828000", "151824.328000", "151825.828000", "151827.328000", "151828.828000", "151830.328000", "151831.828000", "151833.328000", "151834.828000", "151836.328000", "151837.828000", "151839.328000", "151840.828000", "151842.328000", "151843.828000", "151845.328000", "151846.828000", "151848.328000", "151849.828000", "151851.328000", "151852.828000", "151854.328000", "151855.828000", "151857.328000", "151858.828000", "151900.328000", "151901.828000", "151903.328000", "151904.828000", "151906.328000", "151907.828000", "151909.328000", "151910.828000", "151912.328000", "151913.828000", "151915.328000", "151916.828000", "151918.328000", "151919.828000", "151921.328000", "151922.837000", "151924.328000", "151925.828000", "151927.328000", "151928.828000", "151930.328000", "151931.828000", "151933.328000", "151934.828000", "151936.328000", "151937.828000", "151939.328000", "151940.828000", "151942.328000", "151943.828000", "151945.328000", "151946.828000", "151948.328000", "151949.828000", "151951.328000", "151952.828000", "151954.328000", "151955.828000", "151957.328000", "151958.828000", "152000.328000", "152001.828000", "152003.328000", "152004.828000", "152006.328000", "152007.828000", "152009.328000", "152010.828000", "152012.328000", "152013.828000", "152015.328000", "152016.828000", "152018.328000", "152019.828000", "152021.328000", "152022.828000", "152024.328000", "152025.828000", "152027.328000", "152028.828000", "152030.328000", "152031.828000", "152033.328000", "152034.828000", "152036.328000", "152037.828000", "152039.328000", "152040.828000", "152042.328000", "152043.828000", "152045.328000", "152046.828000", "152048.328000", "152049.828000", "152051.328000", "152052.828000", "152054.328000", "152055.828000", "152057.328000", "152058.828000", "152100.328000", "152101.828000", "152103.328000", "152104.828000", "152106.328000", "152107.828000", "152109.328000", "152110.828000", "152112.328000", "152113.828000", "152115.328000", "152116.828000", "152118.328000", "152119.828000", "152121.328000", "152122.828000", "152124.328000", "152125.828000", "152127.328000", "152128.828000", "152130.328000", "152131.828000", "152133.328000", "152134.828000", "152136.328000", "152137.828000", "152139.328000", "152140.828000", "152142.328000", "152143.828000", "152145.328000", "152146.828000", "152148.328000", "152149.828000", "152151.328000", "152152.828000", "152154.328000", "152155.828000", "152157.328000", "152158.828000", "152200.328000", "152201.828000", "152203.328000", "152204.828000", "152206.328000", "152207.828000", "152209.328000", "152210.828000", "152212.328000", "152213.828000", "152215.328000", "152216.828000", "152218.328000", "152219.828000", "152221.328000", "152222.828000", "152224.328000", "152225.828000", "152227.328000", "152228.828000", "152229.997000"],
      "InstanceNumber": [1, 2, 3, 4, 5, 6, 7, 8, 9, 10, 11, 12, 13, 14, 15, 16, 17, 18, 19, 20, 21, 22, 23, 24, 25, 26, 27, 28, 29, 30, 31, 32, 33, 34, 35, 36, 37, 38, 39, 40, 41, 42, 43, 44, 45, 46, 47, 48, 49, 50, 51, 52, 53, 54, 55, 56, 57, 58, 59, 60, 61, 62, 63, 64, 65, 66, 67, 68, 69, 70, 71, 72, 73, 74, 75, 76, 77, 78, 79, 80, 81, 82, 83, 84, 85, 86, 87, 88, 89, 90, 91, 92, 93, 94, 95, 96, 97, 98, 99, 100, 101, 102, 103, 104, 105, 106, 107, 108, 109, 110, 111, 112, 113, 114, 115, 116, 117, 118, 119, 120, 121, 122, 123, 124, 125, 126, 127, 128, 129, 130, 131, 132, 133, 134, 135, 136, 137, 138, 139, 140, 141, 142, 143, 144, 145, 146, 147, 148, 149, 150, 151, 152, 153, 154, 155, 156, 157, 158, 159, 160, 161, 162, 163, 164, 165, 166, 167, 168, 169, 170, 171],
      "LargestImagePixelValue": [1736, 1721, 1725, 1732, 1727, 1727, 1726, 1716, 1733, 1718, 1714, 1719, 1704, 1716, 1714, 1733, 1721, 1717, 1725, 1720, 1722, 1721, 1716, 1732, 1713, 1715, 1714, 1715, 1712, 1707, 1712, 1715, 1711, 1713, 1704, 1702, 1699, 1696, 1687, 1710, 1708, 1711, 1714, 1710, 1722, 1713, 1722, 1730, 1727, 1726, 1707, 1713, 1711, 1718, 1721, 1720, 1713, 1737, 1728, 1718, 1721, 1724, 1726, 1718, 1727, 1718, 1711, 1713, 1715, 1710, 1714, 1718, 1726, 1709, 1718, 1714, 1718, 1716, 1710, 1725, 1731, 1721, 1712, 1715, 1707, 1730, 1718, 1715, 1725, 1716, 1716, 1718, 1724, 1704, 1705, 1715, 1718, 1692, 1709, 1703, 1698, 1707, 1717, 1718, 1738, 1728, 1729, 1724, 1718, 1726, 1734, 1729, 1738, 1725, 1723, 1720, 1713, 1733, 1718, 1701, 1730, 1712, 1700, 1717, 1730, 1734, 1728, 1728, 1709, 1704, 1719, 1716, 1717, 1718, 1717, 1716, 1707, 1706, 1702, 1703, 1691, 1705, 1708, 1725, 1735, 1731, 1714, 1702, 1688, 1682, 1682, 1682, 1707, 1707, 1708, 1717, 1720, 1737, 1738, 1747, 1763, 1756, 1764, 1755, 1740, 1737, 1759, 1741, 1744, 1719, 1725],
      "WindowCenter": [641.0, 640.0, 640.0, 640.0, 640.0, 640.0, 640.0, 640.0, 640.0, 639.0, 638.0, 637.0, 637.0, 638.0, 638.0, 638.0, 638.0, 638.0, 638.0, 637.0, 637.0, 638.0, 638.0, 639.0, 639.0, 639.0, 639.0, 639.0, 638.0, 637.0, 637.0, 637.0, 638.0, 638.0, 638.0, 637.0, 637.0, 636.0, 636.0, 638.0, 638.0, 638.0, 638.0, 637.0, 637.0, 638.0, 639.0, 641.0, 639.0, 638.0, 637.0, 639.0, 638.0, 638.0, 639.0, 639.0, 640.0, 640.0, 639.0, 639.0, 639.0, 639.0, 638.0, 639.0, 640.0, 638.0, 639.0, 639.0, 639.0, 639.0, 639.0, 639.0, 639.0, 639.0, 639.0, 639.0, 639.0, 639.0, 639.0, 639.0, 639.0, 638.0, 638.0, 638.0, 637.0, 638.0, 638.0, 638.0, 638.0, 638.0, 638.0, 638.0, 638.0, 638.0, 639.0, 639.0, 639.0, 638.0, 637.0, 637.0, 637.0, 638.0, 640.0, 638.0, 639.0, 639.0, 639.0, 639.0, 640.0, 639.0, 639.0, 639.0, 638.0, 639.0, 638.0, 638.0, 639.0, 639.0, 639.0, 638.0, 638.0, 638.0, 637.0, 638.0, 638.0, 639.0, 638.0, 637.0, 638.0, 637.0, 638.0, 637.0, 638.0, 638.0, 639.0, 638.0, 637.0, 637.0, 636.0, 636.0, 635.0, 636.0, 636.0, 638.0, 639.0, 639.0, 637.0, 637.0, 635.0, 635.0, 635.0, 635.0, 637.0, 637.0, 638.0, 639.0, 638.0, 639.0, 638.0, 638.0, 639.0, 640.0, 640.0, 639.0, 638.0, 639.0, 640.0, 640.0, 640.0, 639.0, 639.0],
      "WindowWidth": [1379.0, 1376.0, 1376.0, 1378.0, 1378.0, 1378.0, 1377.0, 1376.0, 1378.0, 1374.0, 1372.0, 1371.0, 1370.0, 1373.0, 1372.0, 1372.0, 1371.0, 1371.0, 1372.0, 1370.0, 1370.0, 1373.0, 1372.0, 1375.0, 1374.0, 1375.0, 1374.0, 1373.0, 1371.0, 1369.0, 1369.0, 1370.0, 1371.0, 1371.0, 1371.0, 1370.0, 1369.0, 1367.0, 1368.0, 1371.0, 1371.0, 1371.0, 1371.0, 1369.0, 1370.0, 1373.0, 1375.0, 1378.0, 1373.0, 1372.0, 1370.0, 1373.0, 1372.0, 1373.0, 1374.0, 1375.0, 1376.0, 1376.0, 1374.0, 1374.0, 1373.0, 1373.0, 1372.0, 1374.0, 1375.0, 1372.0, 1374.0, 1374.0, 1375.0, 1375.0, 1374.0, 1374.0, 1374.0, 1375.0, 1374.0, 1375.0, 1373.0, 1374.0, 1375.0, 1374.0, 1373.0, 1371.0, 1371.0, 1371.0, 1369.0, 1372.0, 1372.0, 1371.0, 1371.0, 1371.0, 1371.0, 1372.0, 1372.0, 1372.0, 1374.0, 1375.0, 1374.0, 1373.0, 1370.0, 1370.0, 1369.0, 1371.0, 1376.0, 1373.0, 1375.0, 1375.0, 1375.0, 1374.0, 1377.0, 1373.0, 1374.0, 1373.0, 1372.0, 1373.0, 1371.0, 1372.0, 1375.0, 1375.0, 1373.0, 1371.0, 1372.0, 1371.0, 1369.0, 1370.0, 1372.0, 1373.0, 1372.0, 1369.0, 1371.0, 1370.0, 1371.0, 1370.0, 1371.0, 1372.0, 1373.0, 1372.0, 1369.0, 1368.0, 1368.0, 1366.0, 1365.0, 1366.0, 1368.0, 1372.0, 1373.0, 1373.0, 1369.0, 1368.0, 1365.0, 1364.0, 1364.0, 1365.0, 1368.0, 1370.0, 1372.0, 1373.0, 1372.0, 1375.0, 1371.0, 1371.0, 1374.0, 1376.0, 1376.0, 1373.0, 1373.0, 1373.0, 1376.0, 1376.0, 1377.0, 1375.0, 1373.0]
    },
    "slices": {}
  }
}