{
  "AcquisitionMatrixPE": 74,
  "AcquisitionNumber": 1,
  "AcquisitionTime": "19:10:44.932500",
  "BandwidthPerPixelPhaseEncode": 25.497,
  "BaseResolution": 74,
  "BodyPartExamined": "BRAIN",
  "CoilCombinationMethod": "Sum of Squares",
  "ConsistencyInfo": "N4_VE11C_LATEST_20160120",
  "ConversionSoftware": "dcm2niix",
  "ConversionSoftwareVersion": "v1.0.20220720",
  "DerivedVendorReportedEchoSpacing": 0.000530004,
  "DeviceSerialNumber": "45031",
  "DwellTime": 3e-06,
  "EchoTime": 0.028,
  "EchoTrainLength": 74,
  "EffectiveEchoSpacing": 0.000530004,
  "FlipAngle": 80,
  "HeudiconvVersion": "0.12.2",
  "ImageOrientationPatientDICOM": [0.996041, 0.0430546, -0.0777665, -0.0544667, 0.987006, -0.15117],
  "ImageOrientationText": "Tra>Cor(-8.9)>Sag(-4.0)",
  "ImageType": [
    "ORIGINAL",
    "PRIMARY",
    "M",
    "ND",
    "MOSAIC"
],
  "ImagingFrequency": 123.25,
  "InPlanePhaseEncodingDirectionDICOM": "COL",
  "InstitutionAddress": "Washington and Faculty Rd. - Building 25 25,Princeton,NJ,US,08540",
  "InstitutionName": "Princeton University - Neuroscience Institute",
  "InstitutionalDepartmentName": "Department",
  "MRAcquisitionType": "2D",
  "MagneticFieldStrength": 3,
  "Manufacturer": "Siemens",
  "ManufacturersModelName": "Skyra",
  "Modality": "MR",
  "MultibandAccelerationFactor": 2,
  "NonlinearGradientCorrection": false,
  "PartialFourier": 1,
  "PatientPosition": "HFS",
  "PercentPhaseFOV": 100,
  "PercentSampling": 100,
  "PhaseEncodingDirection": "j-",
  "PhaseEncodingSteps": 74,
  "PhaseResolution": 1,
  "PixelBandwidth": 2250,
  "ProcedureStepDescription": "NormaL_Robert^Tangrams",
  "ProtocolName": "func_task-PostExposure_run-01",
  "PulseSequenceDetails": "%SiemensSeq%\\ep2d_bold",
  "ReceiveCoilActiveElements": "HC1-7",
  "ReceiveCoilName": "HeadNeck_64",
  "ReconMatrixPE": 74,
  "RefLinesPE": 12,
  "RepetitionTime": 1.5,
  "SAR": 0.0709252,
  "ScanOptions": "FS",
  "ScanningSequence": "EP",
  "SequenceName": "*epfid2d1_74",
  "SequenceVariant": "SK",
  "SeriesDescription": "func_task-PostExposure_run-01",
  "SeriesNumber": 15,
  "ShimSetting": [3375, 8802, 9221, 550, 123, -280, -197, 305],
  "SliceThickness": 3,
  "SliceTiming": [0.7075, 0, 0.7725, 0.065, 0.8375, 0.1275, 0.9, 0.1925, 0.965, 0.2575, 1.03, 0.3225, 1.095, 0.385, 1.1575, 0.45, 1.2225, 0.515, 1.2875, 0.58, 1.35, 0.6425, 1.415, 0.7075, 0, 0.7725, 0.065, 0.8375, 0.1275, 0.9, 0.1925, 0.965, 0.2575, 1.03, 0.3225, 1.095, 0.385, 1.1575, 0.45, 1.2225, 0.515, 1.2875, 0.58, 1.35, 0.6425, 1.415],
  "SoftwareVersions": "syngo MR E11",
  "SpacingBetweenSlices": 3,
  "StationName": "AWP45031",
  "TaskName": "PostExposure",
  "TotalReadoutTime": 0.0386903,
  "TxRefAmp": 320.648,
  "dcmmeta_affine": [
    [-2.9881246089935303, -0.1634000986814499, -0.21074247360229492, 118.54383087158203],
    [-0.1291636824607849, 2.9610180854797363, -0.4644223153591156, -114.64563751220703],
    [-0.2332996428012848, 0.45351043343544006, 2.956332206726074, -76.4720458984375],
    [0.0, 0.0, 0.0, 1.0]
],
  "dcmmeta_reorient_transform": [
    [0.0, -1.0, 0.0, 73.0],
    [1.0, 0.0, 0.0, 0.0],
    [0.0, 0.0, 1.0, 0.0],
    [0.0, 0.0, 0.0, 1.0]
],
  "dcmmeta_shape": [74, 74, 46, 172],
  "dcmmeta_slice_dim": 2,
  "dcmmeta_version": 0.6,
  "global": {
    "const": {
      "AcquisitionMatrix": [74, 0, 0, 74],
      "AngioFlag": "N",
      "BitsAllocated": 16,
      "BitsStored": 12,
      "BodyPartExamined": "BRAIN",
      "Columns": 518,
      "EchoNumbers": 1,
      "EchoTime": 28.0,
      "EchoTrainLength": 74,
      "FlipAngle": 80.0,
      "HighBit": 11,
      "ImageOrientationPatient": [0.99604149955754, 0.04305456062457, -0.0777665478763, -0.0544666992682, 0.98700606137579, -0.1511701474441],
      "ImagePositionPatient": [-733.70443917414, -787.52906793966, 109.10605652668],
      "ImageType": [
        "ORIGINAL",
        "PRIMARY",
        "M",
        "ND",
        "MOSAIC"
],
      "ImagedNucleus": "1H",
      "ImagingFrequency": 123.250165,
      "InPlanePhaseEncodingDirection": "COL",
      "MRAcquisitionType": "2D",
      "MagneticFieldStrength": 3.0,
      "Manufacturer": "SIEMENS",
      "ManufacturerModelName": "Skyra",
      "Modality": "MR",
      "NumberOfAverages": 1.0,
      "NumberOfPhaseEncodingSteps": 74,
      "PercentPhaseFieldOfView": 100.0,
      "PercentSampling": 100.0,
      "PerformedProcedureStepStartTime": "172934.952000",
      "PhotometricInterpretation": "MONOCHROME2",
      "PixelBandwidth": 2250.0,
      "PixelRepresentation": 0,
      "PixelSpacing": [3.0, 3.0],
      "ProtocolName": "func_task-PostExposure_run-01",
      "RepetitionTime": 1500.0,
      "Rows": 518,
      "SAR": 0.07092518559716,
      "SamplesPerPixel": 1,
      "ScanOptions": "FS",
      "ScanningSequence": "EP",
      "SequenceName": "*epfid2d1_74",
      "SequenceVariant": "SK",
      "SeriesDescription": "func_task-PostExposure_run-01",
      "SeriesNumber": 15,
      "SeriesTime": "191046.614000",
      "SliceLocation": -65.938331419284,
      "SliceThickness": 3.0,
      "SmallestImagePixelValue": 0,
      "SoftwareVersions": "syngo MR E11",
      "SpacingBetweenSlices": 3.0000001180016,
      "SpecificCharacterSet": "ISO_IR 100",
      "StudyID": "1",
      "StudyTime": "172934.890000",
      "TransmitCoilName": "Body",
      "VariableFlipAngleFlag": "N",
      "WindowCenterWidthExplanation": "Algo1",
      "dBdt": 0.0},
    "slices": {}
  },
  "time": {
    "samples": {
      "AcquisitionNumber": [1, 2, 3, 4, 5, 6, 7, 8, 9, 10, 11, 12, 13, 14, 15, 16, 17, 18, 19, 20, 21, 22, 23, 24, 25, 26, 27, 28, 29, 30, 31, 32, 33, 34, 35, 36, 37, 38, 39, 40, 41, 42, 43, 44, 45, 46, 47, 48, 49, 50, 51, 52, 53, 54, 55, 56, 57, 58, 59, 60, 61, 62, 63, 64, 65, 66, 67, 68, 69, 70, 71, 72, 73, 74, 75, 76, 77, 78, 79, 80, 81, 82, 83, 84, 85, 86, 87, 88, 89, 90, 91, 92, 93, 94, 95, 96, 97, 98, 99, 100, 101, 102, 103, 104, 105, 106, 107, 108, 109, 110, 111, 112, 113, 114, 115, 116, 117, 118, 119, 120, 121, 122, 123, 124, 125, 126, 127, 128, 129, 130, 131, 132, 133, 134, 135, 136, 137, 138, 139, 140, 141, 142, 143, 144, 145, 146, 147, 148, 149, 150, 151, 152, 153, 154, 155, 156, 157, 158, 159, 160, 161, 162, 163, 164, 165, 166, 167, 168, 169, 170, 171, 172],
      "AcquisitionTime": ["191044.932500", "191046.432500", "191047.932500", "191049.432500", "191050.932500", "191052.432500", "191053.932500", "191055.432500", "191056.932500", "191058.432500", "191059.932500", "191101.432500", "191102.932500", "191104.432500", "191105.932500", "191107.432500", "191108.932500", "191110.432500", "191111.932500", "191113.432500", "191114.932500", "191116.432500", "191117.932500", "191119.432500", "191120.932500", "191122.432500", "191123.932500", "191125.432500", "191126.932500", "191128.432500", "191129.932500", "191131.432500", "191132.932500", "191134.432500", "191135.932500", "191137.432500", "191138.932500", "191140.432500", "191141.932500", "191143.432500", "191144.932500", "191146.432500", "191147.932500", "191149.432500", "191150.932500", "191152.432500", "191153.932500", "191155.432500", "191156.932500", "191158.432500", "191159.932500", "191201.432500", "191202.932500", "191204.432500", "191205.932500", "191207.432500", "191208.932500", "191210.432500", "191211.932500", "191213.432500", "191214.932500", "191216.432500", "191217.932500", "191219.432500", "191220.932500", "191222.432500", "191223.932500", "191225.432500", "191226.932500", "191228.432500", "191229.932500", "191231.432500", "191232.932500", "191234.432500", "191235.932500", "191237.432500", "191238.932500", "191240.432500", "191241.932500", "191243.432500", "191244.932500", "191246.432500", "191247.932500", "191249.432500", "191250.932500", "191252.432500", "191253.932500", "191255.432500", "191256.932500", "191258.432500", "191259.932500", "191301.432500", "191302.932500", "191304.432500", "191305.932500", "191307.432500", "191308.932500", "191310.432500", "191311.932500", "191313.432500", "191314.932500", "191316.432500", "191317.932500", "191319.432500", "191320.932500", "191322.432500", "191323.932500", "191325.432500", "191326.932500", "191328.432500", "191329.932500", "191331.432500", "191332.932500", "191334.432500", "191335.932500", "191337.432500", "191338.932500", "191340.432500", "191341.932500", "191343.432500", "191344.932500", "191346.432500", "191347.932500", "191349.432500", "191350.932500", "191352.432500", "191353.932500", "191355.432500", "191356.932500", "191358.432500", "191359.932500", "191401.432500", "191402.932500", "191404.432500", "191405.932500", "191407.432500", "191408.932500", "191410.432500", "191411.932500", "191413.432500", "191414.932500", "191416.432500", "191417.932500", "191419.432500", "191420.932500", "191422.432500", "191423.932500", "191425.432500", "191426.932500", "191428.432500", "191429.932500", "191431.432500", "191432.932500", "191434.432500", "191435.932500", "191437.432500", "191438.932500", "191440.432500", "191441.932500", "191443.432500", "191444.932500", "191446.432500", "191447.932500", "191449.432500", "191450.932500", "191452.432500", "191453.932500", "191455.432500", "191456.932500", "191458.432500", "191459.932500", "191501.432500"],
      "ContentTime": ["191046.618000", "191048.112000", "191049.612000", "191051.112000", "191052.612000", "191054.112000", "191055.612000", "191057.112000", "191058.613000", "191100.113000", "191101.613000", "191103.113000", "191104.613000", "191106.112000", "191107.612000", "191109.112000", "191110.612000", "191112.112000", "191113.612000", "191115.112000", "191116.613000", "191118.113000", "191119.613000", "191121.113000", "191122.612000", "191124.112000", "191125.612000", "191127.112000", "191128.612000", "191130.112000", "191131.612000", "191133.112000", "191134.613000", "191136.113000", "191137.613000", "191139.113000", "191140.612000", "191142.112000", "191143.612000", "191145.112000", "191146.612000", "191148.112000", "191149.612000", "191151.113000", "191152.613000", "191154.113000", "191155.613000", "191157.113000", "191158.612000", "191200.112000", "191201.612000", "191203.112000", "191204.612000", "191206.112000", "191207.612000", "191209.113000", "191210.613000", "191212.113000", "191213.613000", "191215.112000", "191216.612000", "191218.112000", "191219.612000", "191221.112000", "191222.612000", "191224.112000", "191225.612000", "191227.113000", "191228.613000", "191230.113000", "191231.613000", "191233.112000", "191234.612000", "191236.112000", "191237.612000", "191239.112000", "191240.612000", "191242.112000", "191243.613000", "191245.113000", "191246.613000", "191248.113000", "191249.613000", "191251.112000", "191252.612000", "191254.112000", "191255.612000", "191257.112000", "191258.612000", "191300.112000", "191301.613000", "191303.113000", "191304.613000", "191306.113000", "191307.612000", "191309.112000", "191310.612000", "191312.112000", "191313.612000", "191315.112000", "191316.612000", "191318.112000", "191319.613000", "191321.113000", "191322.613000", "191324.113000", "191325.612000", "191327.112000", "191328.612000", "191330.112000", "191331.612000", "191333.112000", "191334.612000", "191336.113000", "191337.613000", "191339.113000", "191340.613000", "191342.113000", "191343.612000", "191345.112000", "191346.612000", "191348.112000", "191349.612000", "191351.112000", "191352.612000", "191354.113000", "191355.613000", "191357.113000", "191358.613000", "191400.112000", "191401.612000", "191403.112000", "191404.612000", "191406.112000", "191407.612000", "191409.112000", "191410.612000", "191412.113000", "191413.613000", "191415.113000", "191416.613000", "191418.112000", "191419.612000", "191421.112000", "191422.612000", "191424.112000", "191425.612000", "191427.112000", "191428.613000", "191430.113000", "191431.613000", "191433.113000", "191434.613000", "191436.112000", "191437.612000", "191439.112000", "191440.612000", "191442.112000", "191443.612000", "191445.112000", "191446.613000", "191448.113000", "191449.613000", "191451.113000", "191452.612000", "191454.112000", "191455.612000", "191457.112000", "191458.612000", "191500.112000", "191501.612000", "191502.815000"],
      "InstanceCreationTime": ["191046.618000", "191048.112000", "191049.612000", "191051.112000", "191052.612000", "191054.112000", "191055.612000", "191057.112000", "191058.613000", "191100.113000", "191101.613000", "191103.113000", "191104.613000", "191106.112000", "191107.612000", "191109.112000", "191110.612000", "191112.112000", "191113.612000", "191115.112000", "191116.613000", "191118.113000", "191119.613000", "191121.113000", "191122.612000", "191124.112000", "191125.612000", "191127.112000", "191128.612000", "191130.112000", "191131.612000", "191133.112000", "191134.613000", "191136.113000", "191137.613000", "191139.113000", "191140.612000", "191142.112000", "191143.612000", "191145.112000", "191146.612000", "191148.112000", "191149.612000", "191151.113000", "191152.613000", "191154.113000", "191155.613000", "191157.113000", "191158.612000", "191200.112000", "191201.612000", "191203.112000", "191204.612000", "191206.112000", "191207.612000", "191209.113000", "191210.613000", "191212.113000", "191213.613000", "191215.112000", "191216.612000", "191218.112000", "191219.612000", "191221.112000", "191222.612000", "191224.112000", "191225.612000", "191227.113000", "191228.613000", "191230.113000", "191231.613000", "191233.112000", "191234.612000", "191236.112000", "191237.612000", "191239.112000", "191240.612000", "191242.112000", "191243.613000", "191245.113000", "191246.613000", "191248.113000", "191249.613000", "191251.112000", "191252.612000", "191254.112000", "191255.612000", "191257.112000", "191258.612000", "191300.112000", "191301.613000", "191303.113000", "191304.613000", "191306.113000", "191307.612000", "191309.112000", "191310.612000", "191312.112000", "191313.612000", "191315.112000", "191316.612000", "191318.112000", "191319.613000", "191321.113000", "191322.613000", "191324.113000", "191325.612000", "191327.112000", "191328.612000", "191330.112000", "191331.612000", "191333.112000", "191334.612000", "191336.113000", "191337.613000", "191339.113000", "191340.613000", "191342.113000", "191343.612000", "191345.112000", "191346.612000", "191348.112000", "191349.612000", "191351.112000", "191352.612000", "191354.113000", "191355.613000", "191357.113000", "191358.613000", "191400.112000", "191401.612000", "191403.112000", "191404.612000", "191406.112000", "191407.612000", "191409.112000", "191410.612000", "191412.113000", "191413.613000", "191415.113000", "191416.613000", "191418.112000", "191419.612000", "191421.112000", "191422.612000", "191424.112000", "191425.612000", "191427.112000", "191428.613000", "191430.113000", "191431.613000", "191433.113000", "191434.613000", "191436.112000", "191437.612000", "191439.112000", "191440.612000", "191442.112000", "191443.612000", "191445.112000", "191446.613000", "191448.113000", "191449.613000", "191451.113000", "191452.612000", "191454.112000", "191455.612000", "191457.112000", "191458.612000", "191500.112000", "191501.612000", "191502.815000"],
      "InstanceNumber": [1, 2, 3, 4, 5, 6, 7, 8, 9, 10, 11, 12, 13, 14, 15, 16, 17, 18, 19, 20, 21, 22, 23, 24, 25, 26, 27, 28, 29, 30, 31, 32, 33, 34, 35, 36, 37, 38, 39, 40, 41, 42, 43, 44, 45, 46, 47, 48, 49, 50, 51, 52, 53, 54, 55, 56, 57, 58, 59, 60, 61, 62, 63, 64, 65, 66, 67, 68, 69, 70, 71, 72, 73, 74, 75, 76, 77, 78, 79, 80, 81, 82, 83, 84, 85, 86, 87, 88, 89, 90, 91, 92, 93, 94, 95, 96, 97, 98, 99, 100, 101, 102, 103, 104, 105, 106, 107, 108, 109, 110, 111, 112, 113, 114, 115, 116, 117, 118, 119, 120, 121, 122, 123, 124, 125, 126, 127, 128, 129, 130, 131, 132, 133, 134, 135, 136, 137, 138, 139, 140, 141, 142, 143, 144, 145, 146, 147, 148, 149, 150, 151, 152, 153, 154, 155, 156, 157, 158, 159, 160, 161, 162, 163, 164, 165, 166, 167, 168, 169, 170, 171, 172],
      "LargestImagePixelValue": [2636, 2651, 2602, 2614, 2608, 2593, 2598, 2607, 2602, 2609, 2582, 2604, 2595, 2584, 2576, 2591, 2575, 2588, 2575, 2586, 2566, 2610, 2564, 2614, 2573, 2611, 2583, 2565, 2572, 2582, 2564, 2583, 2558, 2568, 2554, 2552, 2592, 2585, 2546, 2582, 2559, 2603, 2576, 2561, 2571, 2582, 2559, 2565, 2543, 2575, 2542, 2587, 2548, 2554, 2556, 2535, 2551, 2534, 2553, 2541, 2553, 2540, 2563, 2553, 2546, 2553, 2533, 2549, 2548, 2552, 2549, 2543, 2521, 2532, 2537, 2527, 2547, 2538, 2537, 2537, 2530, 2541, 2509, 2529, 2532, 2528, 2527, 2516, 2529, 2537, 2528, 2532, 2531, 2519, 2526, 2506, 2520, 2512, 2508, 2499, 2530, 2501, 2493, 2519, 2495, 2499, 2491, 2500, 2485, 2496, 2504, 2498, 2494, 2494, 2498, 2504, 2494, 2491, 2497, 2503, 2499, 2490, 2519, 2522, 2525, 2524, 2530, 2541, 2532, 2534, 2532, 2537, 2521, 2526, 2547, 2556, 2539, 2545, 2545, 2557, 2559, 2539, 2560, 2563, 2555, 2548, 2553, 2554, 2562, 2554, 2564, 2567, 2576, 2563, 2560, 2573, 2559, 2582, 2579, 2581, 2570, 2584, 2588, 2575, 2578, 2581, 2576, 2585, 2577, 2584, 2599, 2591],
      "WindowCenter": [694.0, 694.0, 693.0, 694.0, 693.0, 693.0, 693.0, 693.0, 694.0, 693.0, 693.0, 693.0, 693.0, 693.0, 693.0, 693.0, 693.0, 693.0, 694.0, 694.0, 693.0, 694.0, 694.0, 694.0, 694.0, 695.0, 694.0, 694.0, 694.0, 694.0, 693.0, 693.0, 693.0, 693.0, 693.0, 693.0, 694.0, 694.0, 693.0, 693.0, 692.0, 693.0, 693.0, 693.0, 693.0, 694.0, 694.0, 694.0, 693.0, 694.0, 694.0, 694.0, 693.0, 694.0, 693.0, 693.0, 693.0, 693.0, 693.0, 693.0, 693.0, 693.0, 693.0, 693.0, 693.0, 693.0, 693.0, 693.0, 693.0, 694.0, 694.0, 693.0, 693.0, 694.0, 694.0, 694.0, 694.0, 694.0, 694.0, 694.0, 694.0, 694.0, 693.0, 694.0, 693.0, 693.0, 693.0, 693.0, 692.0, 693.0, 692.0, 693.0, 693.0, 693.0, 693.0, 693.0, 693.0, 693.0, 693.0, 692.0, 693.0, 693.0, 693.0, 693.0, 693.0, 693.0, 693.0, 693.0, 693.0, 693.0, 692.0, 693.0, 693.0, 693.0, 693.0, 693.0, 693.0, 693.0, 693.0, 693.0, 694.0, 694.0, 694.0, 694.0, 694.0, 693.0, 694.0, 693.0, 694.0, 694.0, 694.0, 693.0, 692.0, 693.0, 694.0, 694.0, 693.0, 693.0, 693.0, 693.0, 694.0, 694.0, 694.0, 694.0, 694.0, 693.0, 694.0, 694.0, 694.0, 693.0, 694.0, 694.0, 695.0, 694.0, 694.0, 695.0, 694.0, 694.0, 694.0, 694.0, 694.0, 694.0, 694.0, 695.0, 695.0, 695.0, 695.0, 695.0, 696.0, 695.0, 695.0, 695.0],
      "WindowWidth": [1521.0, 1520.0, 1519.0, 1520.0, 1519.0, 1519.0, 1519.0, 1519.0, 1520.0, 1519.0, 1519.0, 1518.0, 1519.0, 1518.0, 1519.0, 1519.0, 1519.0, 1520.0, 1520.0, 1521.0, 1520.0, 1520.0, 1520.0, 1522.0, 1522.0, 1523.0, 1522.0, 1522.0, 1522.0, 1520.0, 1518.0, 1520.0, 1518.0, 1518.0, 1518.0, 1519.0, 1521.0, 1520.0, 1518.0, 1518.0, 1517.0, 1518.0, 1519.0, 1518.0, 1520.0, 1521.0, 1520.0, 1521.0, 1519.0, 1521.0, 1520.0, 1521.0, 1520.0, 1520.0, 1520.0, 1519.0, 1518.0, 1519.0, 1518.0, 1519.0, 1518.0, 1518.0, 1518.0, 1519.0, 1518.0, 1519.0, 1519.0, 1519.0, 1520.0, 1521.0, 1520.0, 1520.0, 1519.0, 1521.0, 1521.0, 1522.0, 1522.0, 1523.0, 1523.0, 1522.0, 1522.0, 1522.0, 1520.0, 1521.0, 1520.0, 1519.0, 1518.0, 1517.0, 1517.0, 1518.0, 1517.0, 1518.0, 1518.0, 1518.0, 1519.0, 1518.0, 1519.0, 1519.0, 1518.0, 1517.0, 1519.0, 1519.0, 1519.0, 1519.0, 1520.0, 1519.0, 1519.0, 1518.0, 1518.0, 1518.0, 1517.0, 1519.0, 1518.0, 1519.0, 1519.0, 1519.0, 1518.0, 1518.0, 1518.0, 1518.0, 1520.0, 1522.0, 1522.0, 1521.0, 1520.0, 1519.0, 1520.0, 1519.0, 1520.0, 1521.0, 1520.0, 1520.0, 1517.0, 1519.0, 1521.0, 1521.0, 1518.0, 1518.0, 1519.0, 1520.0, 1521.0, 1521.0, 1522.0, 1522.0, 1521.0, 1520.0, 1521.0, 1520.0, 1521.0, 1520.0, 1521.0, 1522.0, 1523.0, 1522.0, 1521.0, 1523.0, 1521.0, 1522.0, 1522.0, 1522.0, 1522.0, 1522.0, 1522.0, 1523.0, 1523.0, 1523.0, 1524.0, 1524.0, 1525.0, 1524.0, 1524.0, 1524.0]
    },
    "slices": {}
  }
}