{
  "AcquisitionMatrixPE": 74,
  "AcquisitionNumber": 1,
  "AcquisitionTime": "13:11:36.455000",
  "BandwidthPerPixelPhaseEncode": 25.497,
  "BaseResolution": 74,
  "BodyPartExamined": "BRAIN",
  "CoilCombinationMethod": "Sum of Squares",
  "ConsistencyInfo": "N4_VE11C_LATEST_20160120",
  "ConversionSoftware": "dcm2niix",
  "ConversionSoftwareVersion": "v1.0.20220720",
  "DerivedVendorReportedEchoSpacing": 0.000530004,
  "DeviceSerialNumber": "45031",
  "DwellTime": 3e-06,
  "EchoTime": 0.028,
  "EchoTrainLength": 74,
  "EffectiveEchoSpacing": 0.000530004,
  "FlipAngle": 80,
  "HeudiconvVersion": "0.12.2",
  "ImageOrientationPatientDICOM": [0.998762, 0.0439771, -0.0232421, -0.0474498, 0.982533, -0.179938],
  "ImageOrientationText": "Tra>Cor(-10.4)>Sag(-0.9)",
  "ImageType": [
    "ORIGINAL",
    "PRIMARY",
    "M",
    "ND",
    "MOSAIC"
],
  "ImagingFrequency": 123.25,
  "InPlanePhaseEncodingDirectionDICOM": "COL",
  "InstitutionAddress": "Washington and Faculty Rd. - Building 25 25,Princeton,NJ,US,08540",
  "InstitutionName": "Princeton University - Neuroscience Institute",
  "InstitutionalDepartmentName": "Department",
  "MRAcquisitionType": "2D",
  "MagneticFieldStrength": 3,
  "Manufacturer": "Siemens",
  "ManufacturersModelName": "Skyra",
  "Modality": "MR",
  "MultibandAccelerationFactor": 2,
  "NonlinearGradientCorrection": false,
  "PartialFourier": 1,
  "PatientPosition": "HFS",
  "PercentPhaseFOV": 100,
  "PercentSampling": 100,
  "PhaseEncodingDirection": "j-",
  "PhaseEncodingSteps": 74,
  "PhaseResolution": 1,
  "PixelBandwidth": 2250,
  "ProcedureStepDescription": "NormaL_Robert^Tangrams",
  "ProtocolName": "func_task-PostExposure_run-01",
  "PulseSequenceDetails": "%SiemensSeq%\\ep2d_bold",
  "ReceiveCoilActiveElements": "HC1-7",
  "ReceiveCoilName": "HeadNeck_64",
  "ReconMatrixPE": 74,
  "RefLinesPE": 12,
  "RepetitionTime": 1.5,
  "SAR": 0.0843653,
  "ScanOptions": "FS",
  "ScanningSequence": "EP",
  "SequenceName": "*epfid2d1_74",
  "SequenceVariant": "SK",
  "SeriesDescription": "func_task-PostExposure_run-01",
  "SeriesNumber": 15,
  "ShimSetting": [3395, 8612, 9354, 801, 279, -722, 319, 244],
  "SliceThickness": 3,
  "SliceTiming": [0.7075, 0, 0.7725, 0.065, 0.8375, 0.13, 0.9025, 0.1925, 0.965, 0.2575, 1.03, 0.3225, 1.095, 0.3875, 1.16, 0.45, 1.2225, 0.515, 1.2875, 0.58, 1.3525, 0.645, 1.415, 0.7075, 0, 0.7725, 0.065, 0.8375, 0.13, 0.9025, 0.1925, 0.965, 0.2575, 1.03, 0.3225, 1.095, 0.3875, 1.16, 0.45, 1.2225, 0.515, 1.2875, 0.58, 1.3525, 0.645, 1.415],
  "SoftwareVersions": "syngo MR E11",
  "SpacingBetweenSlices": 3,
  "StationName": "AWP45031",
  "TaskName": "PostExposure",
  "TotalReadoutTime": 0.0386903,
  "TxRefAmp": 297.011,
  "dcmmeta_affine": [
    [-2.996286392211914, -0.14234952628612518, -0.04476877674460411, 114.76510620117188],
    [-0.1319313645362854, 2.947598457336426, -0.5424553155899048, -110.61266326904297],
    [-0.06972621381282806, 0.5398150086402893, 2.950209856033325, -58.96372985839844],
    [0.0, 0.0, 0.0, 1.0]
],
  "dcmmeta_reorient_transform": [
    [0.0, -1.0, 0.0, 73.0],
    [1.0, 0.0, 0.0, 0.0],
    [0.0, 0.0, 1.0, 0.0],
    [0.0, 0.0, 0.0, 1.0]
],
  "dcmmeta_shape": [74, 74, 46, 175],
  "dcmmeta_slice_dim": 2,
  "dcmmeta_version": 0.6,
  "global": {
    "const": {
      "AcquisitionMatrix": [74, 0, 0, 74],
      "AngioFlag": "N",
      "BitsAllocated": 16,
      "BitsStored": 12,
      "BodyPartExamined": "BRAIN",
      "Columns": 518,
      "EchoNumbers": 1,
      "EchoTime": 28.0,
      "EchoTrainLength": 74,
      "FlipAngle": 80.0,
      "HighBit": 11,
      "ImageOrientationPatient": [0.99876214327914, 0.04397712282015, -0.0232420700655, -0.047449841386, 0.98253280068389, -0.1799383453651],
      "ImagePositionPatient": [-737.94758704253, -788.21762775319, 115.76092277974],
      "ImageType": [
        "ORIGINAL",
        "PRIMARY",
        "M",
        "ND",
        "MOSAIC"
],
      "ImagedNucleus": "1H",
      "ImagingFrequency": 123.250108,
      "InPlanePhaseEncodingDirection": "COL",
      "MRAcquisitionType": "2D",
      "MagneticFieldStrength": 3.0,
      "Manufacturer": "SIEMENS",
      "ManufacturerModelName": "Skyra",
      "Modality": "MR",
      "NumberOfAverages": 1.0,
      "NumberOfPhaseEncodingSteps": 74,
      "PercentPhaseFieldOfView": 100.0,
      "PercentSampling": 100.0,
      "PerformedProcedureStepStartTime": "111306.315000",
      "PhotometricInterpretation": "MONOCHROME2",
      "PixelBandwidth": 2250.0,
      "PixelRepresentation": 0,
      "PixelSpacing": [3.0, 3.0],
      "ProtocolName": "func_task-PostExposure_run-01",
      "RepetitionTime": 1500.0,
      "Rows": 518,
      "SAR": 0.08436531026672,
      "SamplesPerPixel": 1,
      "ScanOptions": "FS",
      "ScanningSequence": "EP",
      "SequenceName": "*epfid2d1_74",
      "SequenceVariant": "SK",
      "SeriesDescription": "func_task-PostExposure_run-01",
      "SeriesNumber": 15,
      "SeriesTime": "131138.035000",
      "SliceLocation": -39.696948303087,
      "SliceThickness": 3.0,
      "SmallestImagePixelValue": 0,
      "SoftwareVersions": "syngo MR E11",
      "SpacingBetweenSlices": 3.000000074302,
      "SpecificCharacterSet": "ISO_IR 100",
      "StudyID": "1",
      "StudyTime": "111306.229000",
      "TransmitCoilName": "Body",
      "VariableFlipAngleFlag": "N",
      "WindowCenterWidthExplanation": "Algo1",
      "dBdt": 0.0},
    "slices": {}
  },
  "time": {
    "samples": {
      "AcquisitionNumber": [1, 2, 3, 4, 5, 6, 7, 8, 9, 10, 11, 12, 13, 14, 15, 16, 17, 18, 19, 20, 21, 22, 23, 24, 25, 26, 27, 28, 29, 30, 31, 32, 33, 34, 35, 36, 37, 38, 39, 40, 41, 42, 43, 44, 45, 46, 47, 48, 49, 50, 51, 52, 53, 54, 55, 56, 57, 58, 59, 60, 61, 62, 63, 64, 65, 66, 67, 68, 69, 70, 71, 72, 73, 74, 75, 76, 77, 78, 79, 80, 81, 82, 83, 84, 85, 86, 87, 88, 89, 90, 91, 92, 93, 94, 95, 96, 97, 98, 99, 100, 101, 102, 103, 104, 105, 106, 107, 108, 109, 110, 111, 112, 113, 114, 115, 116, 117, 118, 119, 120, 121, 122, 123, 124, 125, 126, 127, 128, 129, 130, 131, 132, 133, 134, 135, 136, 137, 138, 139, 140, 141, 142, 143, 144, 145, 146, 147, 148, 149, 150, 151, 152, 153, 154, 155, 156, 157, 158, 159, 160, 161, 162, 163, 164, 165, 166, 167, 168, 169, 170, 171, 172, 173, 174, 175],
      "AcquisitionTime": ["131136.455000", "131137.955000", "131139.455000", "131140.955000", "131142.455000", "131143.955000", "131145.455000", "131146.955000", "131148.455000", "131149.955000", "131151.455000", "131152.955000", "131154.455000", "131155.955000", "131157.455000", "131158.955000", "131200.455000", "131201.955000", "131203.455000", "131204.955000", "131206.455000", "131207.955000", "131209.455000", "131210.955000", "131212.455000", "131213.955000", "131215.455000", "131216.955000", "131218.455000", "131219.955000", "131221.455000", "131222.955000", "131224.455000", "131225.955000", "131227.455000", "131228.955000", "131230.455000", "131231.955000", "131233.455000", "131234.955000", "131236.455000", "131237.955000", "131239.455000", "131240.955000", "131242.455000", "131243.955000", "131245.455000", "131246.955000", "131248.455000", "131249.955000", "131251.455000", "131252.955000", "131254.455000", "131255.955000", "131257.455000", "131258.955000", "131300.455000", "131301.955000", "131303.455000", "131304.955000", "131306.455000", "131307.955000", "131309.455000", "131310.955000", "131312.455000", "131313.955000", "131315.455000", "131316.955000", "131318.455000", "131319.955000", "131321.455000", "131322.955000", "131324.455000", "131325.955000", "131327.455000", "131328.955000", "131330.455000", "131331.955000", "131333.455000", "131334.955000", "131336.455000", "131337.955000", "131339.455000", "131340.955000", "131342.455000", "131343.955000", "131345.455000", "131346.955000", "131348.455000", "131349.955000", "131351.455000", "131352.955000", "131354.455000", "131355.955000", "131357.455000", "131358.955000", "131400.455000", "131401.955000", "131403.455000", "131404.955000", "131406.455000", "131407.955000", "131409.455000", "131410.955000", "131412.455000", "131413.955000", "131415.455000", "131416.955000", "131418.455000", "131419.955000", "131421.455000", "131422.955000", "131424.455000", "131425.955000", "131427.455000", "131428.955000", "131430.455000", "131431.955000", "131433.455000", "131434.955000", "131436.455000", "131437.955000", "131439.455000", "131440.955000", "131442.455000", "131443.955000", "131445.455000", "131446.955000", "131448.455000", "131449.955000", "131451.455000", "131452.955000", "131454.455000", "131455.955000", "131457.455000", "131458.955000", "131500.455000", "131501.955000", "131503.455000", "131504.955000", "131506.455000", "131507.955000", "131509.455000", "131510.955000", "131512.455000", "131513.955000", "131515.455000", "131516.955000", "131518.455000", "131519.955000", "131521.455000", "131522.955000", "131524.455000", "131525.955000", "131527.455000", "131528.955000", "131530.455000", "131531.955000", "131533.455000", "131534.955000", "131536.455000", "131537.955000", "131539.455000", "131540.955000", "131542.455000", "131543.955000", "131545.455000", "131546.955000", "131548.455000", "131549.955000", "131551.455000", "131552.955000", "131554.455000", "131555.955000", "131557.455000"],
      "ContentTime": ["131138.038000", "131139.534000", "131141.034000", "131142.534000", "131144.034000", "131145.534000", "131147.034000", "131148.534000", "131150.034000", "131151.534000", "131153.034000", "131154.534000", "131156.034000", "131157.534000", "131159.035000", "131200.534000", "131202.034000", "131203.534000", "131205.034000", "131206.534000", "131208.034000", "131209.534000", "131211.034000", "131212.534000", "131214.034000", "131215.534000", "131217.034000", "131218.534000", "131220.034000", "131221.534000", "131223.034000", "131224.534000", "131226.034000", "131227.534000", "131229.034000", "131230.534000", "131232.034000", "131233.534000", "131235.034000", "131236.534000", "131238.034000", "131239.534000", "131241.034000", "131242.534000", "131244.034000", "131245.534000", "131247.034000", "131248.534000", "131250.034000", "131251.535000", "131253.034000", "131254.534000", "131256.034000", "131257.534000", "131259.034000", "131300.534000", "131302.034000", "131303.534000", "131305.034000", "131306.534000", "131308.034000", "131309.534000", "131311.034000", "131312.534000", "131314.034000", "131315.534000", "131317.034000", "131318.534000", "131320.034000", "131321.534000", "131323.034000", "131324.534000", "131326.034000", "131327.534000", "131329.034000", "131330.534000", "131332.034000", "131333.534000", "131335.034000", "131336.534000", "131338.034000", "131339.534000", "131341.034000", "131342.534000", "131344.035000", "131345.534000", "131347.034000", "131348.534000", "131350.034000", "131351.533000", "131353.034000", "131354.534000", "131356.034000", "131357.534000", "131359.034000", "131400.534000", "131402.034000", "131403.534000", "131405.034000", "131406.534000", "131408.034000", "131409.534000", "131411.034000", "131412.534000", "131414.034000", "131415.534000", "131417.034000", "131418.534000", "131420.034000", "131421.534000", "131423.034000", "131424.534000", "131426.034000", "131427.534000", "131429.034000", "131430.534000", "131432.034000", "131433.534000", "131435.034000", "131436.535000", "131438.034000", "131439.534000", "131441.034000", "131442.534000", "131444.034000", "131445.534000", "131447.034000", "131448.534000", "131450.034000", "131451.534000", "131453.034000", "131454.534000", "131456.034000", "131457.534000", "131459.034000", "131500.534000", "131502.034000", "131503.534000", "131505.034000", "131506.534000", "131508.034000", "131509.534000", "131511.034000", "131512.534000", "131514.034000", "131515.534000", "131517.034000", "131518.534000", "131520.034000", "131521.534000", "131523.034000", "131524.534000", "131526.045000", "131527.534000", "131529.035000", "131530.534000", "131532.034000", "131533.534000", "131535.034000", "131536.534000", "131538.034000", "131539.534000", "131541.034000", "131542.534000", "131544.034000", "131545.534000", "131547.034000", "131548.534000", "131550.034000", "131551.534000", "131553.034000", "131554.534000", "131556.034000", "131557.534000", "131559.034000"],
      "InstanceCreationTime": ["131138.038000", "131139.534000", "131141.034000", "131142.534000", "131144.034000", "131145.534000", "131147.034000", "131148.534000", "131150.034000", "131151.534000", "131153.034000", "131154.534000", "131156.034000", "131157.534000", "131159.035000", "131200.534000", "131202.034000", "131203.534000", "131205.034000", "131206.534000", "131208.034000", "131209.534000", "131211.034000", "131212.534000", "131214.034000", "131215.534000", "131217.034000", "131218.534000", "131220.034000", "131221.534000", "131223.034000", "131224.534000", "131226.034000", "131227.534000", "131229.034000", "131230.534000", "131232.034000", "131233.534000", "131235.034000", "131236.534000", "131238.034000", "131239.534000", "131241.034000", "131242.534000", "131244.034000", "131245.534000", "131247.034000", "131248.534000", "131250.034000", "131251.535000", "131253.034000", "131254.534000", "131256.034000", "131257.534000", "131259.034000", "131300.534000", "131302.034000", "131303.534000", "131305.034000", "131306.534000", "131308.034000", "131309.534000", "131311.034000", "131312.534000", "131314.034000", "131315.534000", "131317.034000", "131318.534000", "131320.034000", "131321.534000", "131323.034000", "131324.534000", "131326.034000", "131327.534000", "131329.034000", "131330.534000", "131332.034000", "131333.534000", "131335.034000", "131336.534000", "131338.034000", "131339.534000", "131341.034000", "131342.534000", "131344.035000", "131345.534000", "131347.034000", "131348.534000", "131350.034000", "131351.533000", "131353.034000", "131354.534000", "131356.034000", "131357.534000", "131359.034000", "131400.534000", "131402.034000", "131403.534000", "131405.034000", "131406.534000", "131408.034000", "131409.534000", "131411.034000", "131412.534000", "131414.034000", "131415.534000", "131417.034000", "131418.534000", "131420.034000", "131421.534000", "131423.034000", "131424.534000", "131426.034000", "131427.534000", "131429.034000", "131430.534000", "131432.034000", "131433.534000", "131435.034000", "131436.535000", "131438.034000", "131439.534000", "131441.034000", "131442.534000", "131444.034000", "131445.534000", "131447.034000", "131448.534000", "131450.034000", "131451.534000", "131453.034000", "131454.534000", "131456.034000", "131457.534000", "131459.034000", "131500.534000", "131502.034000", "131503.534000", "131505.034000", "131506.534000", "131508.034000", "131509.534000", "131511.034000", "131512.534000", "131514.034000", "131515.534000", "131517.034000", "131518.534000", "131520.034000", "131521.534000", "131523.034000", "131524.534000", "131526.045000", "131527.534000", "131529.035000", "131530.534000", "131532.034000", "131533.534000", "131535.034000", "131536.534000", "131538.034000", "131539.534000", "131541.034000", "131542.534000", "131544.034000", "131545.534000", "131547.034000", "131548.534000", "131550.034000", "131551.534000", "131553.034000", "131554.534000", "131556.034000", "131557.534000", "131559.034000"],
      "InstanceNumber": [1, 2, 3, 4, 5, 6, 7, 8, 9, 10, 11, 12, 13, 14, 15, 16, 17, 18, 19, 20, 21, 22, 23, 24, 25, 26, 27, 28, 29, 30, 31, 32, 33, 34, 35, 36, 37, 38, 39, 40, 41, 42, 43, 44, 45, 46, 47, 48, 49, 50, 51, 52, 53, 54, 55, 56, 57, 58, 59, 60, 61, 62, 63, 64, 65, 66, 67, 68, 69, 70, 71, 72, 73, 74, 75, 76, 77, 78, 79, 80, 81, 82, 83, 84, 85, 86, 87, 88, 89, 90, 91, 92, 93, 94, 95, 96, 97, 98, 99, 100, 101, 102, 103, 104, 105, 106, 107, 108, 109, 110, 111, 112, 113, 114, 115, 116, 117, 118, 119, 120, 121, 122, 123, 124, 125, 126, 127, 128, 129, 130, 131, 132, 133, 134, 135, 136, 137, 138, 139, 140, 141, 142, 143, 144, 145, 146, 147, 148, 149, 150, 151, 152, 153, 154, 155, 156, 157, 158, 159, 160, 161, 162, 163, 164, 165, 166, 167, 168, 169, 170, 171, 172, 173, 174, 175],
      "LargestImagePixelValue": [2743, 2730, 2715, 2695, 2697, 2672, 2682, 2672, 2718, 2741, 2777, 2758, 2763, 2727, 2769, 2762, 2787, 2778, 2789, 2770, 2781, 2764, 2781, 2776, 2773, 2799, 2780, 2788, 2792, 2776, 2784, 2777, 2728, 2710, 2711, 2698, 2744, 2720, 2726, 2703, 2709, 2700, 2695, 2708, 2679, 2690, 2688, 2688, 2681, 2680, 2687, 2687, 2688, 2682, 2701, 2684, 2691, 2681, 2703, 2699, 2707, 2693, 2693, 2703, 2700, 2716, 2703, 2719, 2714, 2747, 2720, 2727, 2733, 2743, 2730, 2742, 2722, 2721, 2724, 2720, 2723, 2732, 2731, 2734, 2738, 2731, 2738, 2736, 2736, 2733, 2756, 2727, 2725, 2713, 2742, 2723, 2724, 2727, 2745, 2722, 2725, 2713, 2735, 2714, 2729, 2716, 2724, 2727, 2723, 2724, 2738, 2729, 2714, 2730, 2720, 2727, 2738, 2738, 2740, 2732, 2723, 2717, 2725, 2734, 2751, 2762, 2712, 2722, 2712, 2739, 2726, 2712, 2730, 2714, 2795, 2848, 2736, 2797, 2801, 2760, 2807, 2785, 2744, 2736, 2739, 2764, 2766, 2734, 2726, 2781, 2770, 2801, 2804, 2807, 2850, 2862, 2897, 2836, 2882, 2818, 2865, 2847, 2837, 2811, 2763, 2779, 2773, 2792, 2804, 2815, 2874, 2860, 2869, 2875, 2850],
      "WindowCenter": [671.0, 671.0, 671.0, 672.0, 672.0, 673.0, 674.0, 674.0, 675.0, 675.0, 675.0, 674.0, 675.0, 674.0, 675.0, 675.0, 675.0, 675.0, 675.0, 675.0, 676.0, 676.0, 676.0, 676.0, 676.0, 676.0, 677.0, 677.0, 677.0, 676.0, 676.0, 676.0, 676.0, 678.0, 678.0, 678.0, 678.0, 677.0, 677.0, 677.0, 678.0, 679.0, 679.0, 678.0, 677.0, 678.0, 678.0, 679.0, 679.0, 678.0, 679.0, 679.0, 679.0, 680.0, 680.0, 679.0, 679.0, 679.0, 679.0, 678.0, 678.0, 678.0, 678.0, 678.0, 678.0, 679.0, 679.0, 680.0, 679.0, 680.0, 679.0, 679.0, 679.0, 680.0, 680.0, 680.0, 680.0, 680.0, 680.0, 680.0, 682.0, 683.0, 682.0, 680.0, 679.0, 678.0, 678.0, 678.0, 678.0, 677.0, 678.0, 678.0, 679.0, 680.0, 680.0, 681.0, 682.0, 682.0, 682.0, 680.0, 680.0, 681.0, 681.0, 680.0, 679.0, 679.0, 679.0, 678.0, 678.0, 679.0, 680.0, 680.0, 680.0, 680.0, 680.0, 680.0, 681.0, 682.0, 681.0, 680.0, 679.0, 679.0, 679.0, 681.0, 682.0, 683.0, 682.0, 681.0, 681.0, 681.0, 679.0, 678.0, 677.0, 678.0, 679.0, 680.0, 680.0, 682.0, 683.0, 684.0, 684.0, 684.0, 683.0, 683.0, 684.0, 684.0, 683.0, 680.0, 678.0, 679.0, 679.0, 679.0, 679.0, 679.0, 680.0, 680.0, 681.0, 681.0, 684.0, 684.0, 685.0, 685.0, 685.0, 685.0, 684.0, 685.0, 685.0, 684.0, 683.0, 682.0, 682.0, 681.0, 681.0, 681.0, 681.0],
      "WindowWidth": [1476.0, 1475.0, 1475.0, 1476.0, 1478.0, 1480.0, 1484.0, 1485.0, 1487.0, 1486.0, 1487.0, 1484.0, 1485.0, 1484.0, 1486.0, 1486.0, 1485.0, 1485.0, 1486.0, 1486.0, 1489.0, 1489.0, 1489.0, 1488.0, 1488.0, 1490.0, 1493.0, 1493.0, 1493.0, 1491.0, 1489.0, 1490.0, 1491.0, 1497.0, 1496.0, 1496.0, 1497.0, 1494.0, 1494.0, 1495.0, 1497.0, 1499.0, 1499.0, 1497.0, 1494.0, 1495.0, 1496.0, 1498.0, 1498.0, 1498.0, 1499.0, 1500.0, 1501.0, 1502.0, 1503.0, 1500.0, 1500.0, 1498.0, 1499.0, 1497.0, 1497.0, 1497.0, 1497.0, 1497.0, 1498.0, 1499.0, 1500.0, 1501.0, 1500.0, 1501.0, 1499.0, 1498.0, 1499.0, 1502.0, 1504.0, 1504.0, 1502.0, 1502.0, 1502.0, 1504.0, 1509.0, 1512.0, 1509.0, 1503.0, 1499.0, 1496.0, 1497.0, 1497.0, 1495.0, 1495.0, 1496.0, 1496.0, 1499.0, 1501.0, 1503.0, 1506.0, 1509.0, 1509.0, 1508.0, 1504.0, 1503.0, 1504.0, 1504.0, 1502.0, 1500.0, 1499.0, 1498.0, 1497.0, 1497.0, 1499.0, 1502.0, 1503.0, 1502.0, 1502.0, 1501.0, 1503.0, 1505.0, 1508.0, 1506.0, 1502.0, 1499.0, 1501.0, 1501.0, 1504.0, 1508.0, 1510.0, 1509.0, 1506.0, 1506.0, 1503.0, 1498.0, 1495.0, 1494.0, 1495.0, 1500.0, 1503.0, 1502.0, 1508.0, 1512.0, 1513.0, 1515.0, 1514.0, 1512.0, 1513.0, 1515.0, 1515.0, 1510.0, 1503.0, 1498.0, 1498.0, 1499.0, 1500.0, 1499.0, 1499.0, 1502.0, 1502.0, 1506.0, 1506.0, 1513.0, 1514.0, 1518.0, 1518.0, 1518.0, 1517.0, 1516.0, 1518.0, 1518.0, 1514.0, 1511.0, 1507.0, 1506.0, 1505.0, 1506.0, 1506.0, 1504.0]
    },
    "slices": {}
  }
}