{
  "AcquisitionMatrixPE": 74,
  "AcquisitionNumber": 1,
  "AcquisitionTime": "11:57:45.180000",
  "BandwidthPerPixelPhaseEncode": 25.497,
  "BaseResolution": 74,
  "BodyPartExamined": "BRAIN",
  "CoilCombinationMethod": "Sum of Squares",
  "ConsistencyInfo": "N4_VE11C_LATEST_20160120",
  "ConversionSoftware": "dcm2niix",
  "ConversionSoftwareVersion": "v1.0.20220720",
  "DerivedVendorReportedEchoSpacing": 0.000530004,
  "DeviceSerialNumber": "66018",
  "DwellTime": 3e-06,
  "EchoTime": 0.028,
  "EchoTrainLength": 74,
  "EffectiveEchoSpacing": 0.000530004,
  "FlipAngle": 80,
  "HeudiconvVersion": "0.12.2",
  "ImageOrientationPatientDICOM": [-0.0622749, 0.997751, -0.0247784, -0.0132412, -0.0256504, -0.999583],
  "ImageOrientationText": "Sag>Cor(-3.6)>Tra(0.8)",
  "ImageType": [
    "ORIGINAL",
    "PRIMARY",
    "M",
    "ND",
    "MOSAIC"
],
  "ImagingFrequency": 123.168,
  "InPlanePhaseEncodingDirectionDICOM": "ROW",
  "InstitutionAddress": "Stadium 1952,Princeton,NJ,US,08544",
  "InstitutionName": "Princeton University",
  "InstitutionalDepartmentName": "NeuroScience",
  "MRAcquisitionType": "2D",
  "MagneticFieldStrength": 3,
  "Manufacturer": "Siemens",
  "ManufacturersModelName": "Prisma",
  "Modality": "MR",
  "MultibandAccelerationFactor": 2,
  "NonlinearGradientCorrection": false,
  "PartialFourier": 1,
  "PatientPosition": "HFS",
  "PercentPhaseFOV": 100,
  "PercentSampling": 100,
  "PhaseEncodingDirection": "i",
  "PhaseEncodingSteps": 74,
  "PhaseResolution": 1,
  "PixelBandwidth": 2250,
  "ProcedureStepDescription": "NormaL_Robert^Tangrams",
  "ProtocolName": "func_task-Repeated_run-04",
  "PulseSequenceDetails": "%SiemensSeq%\\ep2d_bold",
  "ReceiveCoilActiveElements": "HC1-7",
  "ReceiveCoilName": "HeadNeck_64",
  "ReconMatrixPE": 74,
  "RefLinesPE": 12,
  "RepetitionTime": 2.27,
  "SAR": 0.0709141,
  "ScanOptions": "FS",
  "ScanningSequence": "EP",
  "SequenceName": "*epfid2d1_74",
  "SequenceVariant": "SK",
  "SeriesDescription": "func_task-Repeated_run-04",
  "SeriesNumber": 28,
  "ShimSetting": [749, 484, 2010, 400, -94, -327, 262, 73],
  "SliceThickness": 3,
  "SliceTiming": [1.0925, 0, 1.1575, 0.065, 1.22, 0.1275, 1.285, 0.1925, 1.35, 0.2575, 1.415, 0.32, 1.4775, 0.385, 1.5425, 0.45, 1.6075, 0.515, 1.67, 0.5775, 1.735, 0.6425, 1.8, 0.7075, 1.8625, 0.77, 1.9275, 0.835, 1.9925, 0.9, 2.0575, 0.965, 2.12, 1.0275, 2.185, 1.0925, 0, 1.1575, 0.065, 1.22, 0.1275, 1.285, 0.1925, 1.35, 0.2575, 1.415, 0.32, 1.4775, 0.385, 1.5425, 0.45, 1.6075, 0.515, 1.67, 0.5775, 1.735, 0.6425, 1.8, 0.7075, 1.8625, 0.77, 1.9275, 0.835, 1.9925, 0.9, 2.0575, 0.965, 2.12, 1.0275, 2.185],
  "SoftwareVersions": "syngo MR E11",
  "SpacingBetweenSlices": 3,
  "StationName": "AWP66018",
  "TaskName": "Repeated",
  "TotalReadoutTime": 0.0386903,
  "TxRefAmp": 239.472,
  "dcmmeta_affine": [
    [0.18682464957237244, -0.039723485708236694, -2.9939136505126953, 99.8792953491211],
    [-2.9932541847229004, -0.07695113867521286, -0.18576250970363617, 116.10908508300781],
    [-0.07433530688285828, 2.9987497329711914, -0.044426288455724716, -123.18217468261719],
    [0.0, 0.0, 0.0, 1.0]
],
  "dcmmeta_reorient_transform": [
    [0.0, -1.0, 0.0, 73.0],
    [1.0, 0.0, 0.0, 0.0],
    [0.0, 0.0, 1.0, 0.0],
    [0.0, 0.0, 0.0, 1.0]
],
  "dcmmeta_shape": [74, 74, 70, 155],
  "dcmmeta_slice_dim": 2,
  "dcmmeta_version": 0.6,
  "global": {
    "const": {
      "AcquisitionMatrix": [0, 74, 74, 0],
      "AngioFlag": "N",
      "BitsAllocated": 16,
      "BitsStored": 12,
      "BodyPartExamined": "BRAIN",
      "Columns": 666,
      "EchoNumbers": 1,
      "EchoTime": 28.0,
      "EchoTrainLength": 74,
      "FlipAngle": 80.0,
      "HighBit": 11,
      "ImageOrientationPatient": [-0.0622748810882, 0.9977514060481, -0.0247784364819, -0.0132411618497, -0.0256503798308, -0.9995832779951],
      "ImagePositionPatient": [-29.921236105502, -973.71736322513, 1005.3597660163],
      "ImageType": [
        "ORIGINAL",
        "PRIMARY",
        "M",
        "ND",
        "MOSAIC"
],
      "ImagedNucleus": "1H",
      "ImagingFrequency": 123.167552,
      "InPlanePhaseEncodingDirection": "ROW",
      "MRAcquisitionType": "2D",
      "MagneticFieldStrength": 3.0,
      "Manufacturer": "SIEMENS",
      "ManufacturerModelName": "Prisma",
      "Modality": "MR",
      "NumberOfAverages": 1.0,
      "NumberOfPhaseEncodingSteps": 74,
      "PercentPhaseFieldOfView": 100.0,
      "PercentSampling": 100.0,
      "PerformedProcedureStepStartTime": "093329.673000",
      "PhotometricInterpretation": "MONOCHROME2",
      "PixelBandwidth": 2250.0,
      "PixelRepresentation": 0,
      "PixelSpacing": [3.0, 3.0],
      "ProtocolName": "func_task-Repeated_run-04",
      "RepetitionTime": 2270.0,
      "Rows": 666,
      "SAR": 0.07091407731261,
      "SamplesPerPixel": 1,
      "ScanOptions": "FS",
      "ScanningSequence": "EP",
      "SequenceName": "*epfid2d1_74",
      "SequenceVariant": "SK",
      "SeriesDescription": "func_task-Repeated_run-04",
      "SeriesNumber": 28,
      "SeriesTime": "115747.049000",
      "SliceLocation": -105.04205721653,
      "SliceThickness": 3.0,
      "SmallestImagePixelValue": 0,
      "SoftwareVersions": "syngo MR E11",
      "SpacingBetweenSlices": 3.0000000362059,
      "SpecificCharacterSet": "ISO_IR 100",
      "StudyID": "1",
      "StudyTime": "093329.545000",
      "TransmitCoilName": "Body",
      "VariableFlipAngleFlag": "N",
      "WindowCenterWidthExplanation": "Algo1",
      "dBdt": 0.0},
    "slices": {}
  },
  "time": {
    "samples": {
      "AcquisitionNumber": [1, 2, 3, 4, 5, 6, 7, 8, 9, 10, 11, 12, 13, 14, 15, 16, 17, 18, 19, 20, 21, 22, 23, 24, 25, 26, 27, 28, 29, 30, 31, 32, 33, 34, 35, 36, 37, 38, 39, 40, 41, 42, 43, 44, 45, 46, 47, 48, 49, 50, 51, 52, 53, 54, 55, 56, 57, 58, 59, 60, 61, 62, 63, 64, 65, 66, 67, 68, 69, 70, 71, 72, 73, 74, 75, 76, 77, 78, 79, 80, 81, 82, 83, 84, 85, 86, 87, 88, 89, 90, 91, 92, 93, 94, 95, 96, 97, 98, 99, 100, 101, 102, 103, 104, 105, 106, 107, 108, 109, 110, 111, 112, 113, 114, 115, 116, 117, 118, 119, 120, 121, 122, 123, 124, 125, 126, 127, 128, 129, 130, 131, 132, 133, 134, 135, 136, 137, 138, 139, 140, 141, 142, 143, 144, 145, 146, 147, 148, 149, 150, 151, 152, 153, 154, 155],
      "AcquisitionTime": ["115745.180000", "115747.450000", "115749.720000", "115751.990000", "115754.260000", "115756.530000", "115758.800000", "115801.070000", "115803.340000", "115805.610000", "115807.880000", "115810.150000", "115812.420000", "115814.690000", "115816.960000", "115819.230000", "115821.500000", "115823.770000", "115826.040000", "115828.310000", "115830.580000", "115832.850000", "115835.120000", "115837.390000", "115839.660000", "115841.930000", "115844.200000", "115846.470000", "115848.740000", "115851.010000", "115853.280000", "115855.550000", "115857.820000", "115900.090000", "115902.360000", "115904.630000", "115906.900000", "115909.170000", "115911.440000", "115913.710000", "115915.980000", "115918.250000", "115920.520000", "115922.790000", "115925.060000", "115927.330000", "115929.600000", "115931.870000", "115934.140000", "115936.410000", "115938.680000", "115940.950000", "115943.220000", "115945.490000", "115947.760000", "115950.030000", "115952.300000", "115954.570000", "115956.840000", "115959.110000", "120001.380000", "120003.650000", "120005.920000", "120008.190000", "120010.460000", "120012.730000", "120015.000000", "120017.270000", "120019.540000", "120021.810000", "120024.080000", "120026.350000", "120028.620000", "120030.890000", "120033.160000", "120035.430000", "120037.700000", "120039.970000", "120042.240000", "120044.510000", "120046.780000", "120049.050000", "120051.320000", "120053.590000", "120055.860000", "120058.130000", "120100.400000", "120102.670000", "120104.940000", "120107.210000", "120109.480000", "120111.750000", "120114.020000", "120116.290000", "120118.560000", "120120.830000", "120123.100000", "120125.370000", "120127.640000", "120129.910000", "120132.180000", "120134.450000", "120136.720000", "120138.990000", "120141.260000", "120143.530000", "120145.800000", "120148.070000", "120150.340000", "120152.610000", "120154.880000", "120157.150000", "120159.420000", "120201.690000", "120203.960000", "120206.230000", "120208.500000", "120210.770000", "120213.040000", "120215.310000", "120217.580000", "120219.850000", "120222.120000", "120224.390000", "120226.660000", "120228.930000", "120231.200000", "120233.470000", "120235.740000", "120238.010000", "120240.280000", "120242.550000", "120244.820000", "120247.090000", "120249.360000", "120251.630000", "120253.900000", "120256.170000", "120258.440000", "120300.710000", "120302.980000", "120305.250000", "120307.520000", "120309.790000", "120312.060000", "120314.330000", "120316.600000", "120318.870000", "120321.140000", "120323.410000", "120325.680000", "120327.950000", "120330.220000", "120332.490000", "120334.760000"],
      "ContentTime": ["115747.053000", "115749.548000", "115751.548000", "115754.048000", "115756.048000", "115758.548000", "115800.548000", "115803.048000", "115805.047000", "115807.548000", "115809.548000", "115812.048000", "115814.548000", "115816.548000", "115819.048000", "115821.048000", "115823.548000", "115825.548000", "115828.048000", "115830.048000", "115832.548000", "115834.548000", "115837.048000", "115839.548000", "115841.548000", "115844.048000", "115846.048000", "115848.548000", "115850.548000", "115853.048000", "115855.048000", "115857.547000", "115859.548000", "115902.048000", "115904.048000", "115906.548000", "115909.048000", "115911.048000", "115913.548000", "115915.548000", "115918.048000", "115920.048000", "115922.548000", "115924.548000", "115927.048000", "115929.048000", "115931.548000", "115933.548000", "115936.048000", "115938.548000", "115940.548000", "115943.048000", "115945.048000", "115947.548000", "115949.548000", "115952.048000", "115954.048000", "115956.548000", "115958.548000", "120001.048000", "120003.548000", "120005.548000", "120008.048000", "120010.048000", "120012.548000", "120014.548000", "120017.048000", "120019.048000", "120021.548000", "120023.548000", "120026.048000", "120028.048000", "120030.548000", "120032.548000", "120035.048000", "120037.548000", "120039.548000", "120042.048000", "120044.048000", "120046.548000", "120048.548000", "120051.048000", "120053.048000", "120055.548000", "120057.548000", "120100.047000", "120102.548000", "120104.548000", "120107.048000", "120109.048000", "120111.548000", "120113.548000", "120116.048000", "120118.048000", "120120.548000", "120122.548000", "120125.048000", "120127.048000", "120129.548000", "120132.048000", "120134.048000", "120136.548000", "120138.548000", "120141.048000", "120143.048000", "120145.548000", "120147.548000", "120150.048000", "120152.048000", "120154.548000", "120156.548000", "120159.048000", "120201.548000", "120203.548000", "120206.048000", "120208.048000", "120210.548000", "120212.548000", "120215.048000", "120217.048000", "120219.548000", "120221.548000", "120224.048000", "120226.548000", "120228.548000", "120231.048000", "120233.048000", "120235.548000", "120237.548000", "120240.048000", "120242.048000", "120244.548000", "120246.548000", "120249.048000", "120251.048000", "120253.548000", "120255.548000", "120258.048000", "120300.548000", "120302.547000", "120305.048000", "120307.048000", "120309.548000", "120311.548000", "120314.048000", "120316.048000", "120318.548000", "120320.548000", "120323.048000", "120325.548000", "120327.548000", "120330.048000", "120332.048000", "120334.548000", "120336.548000"],
      "InstanceCreationTime": ["115747.053000", "115749.548000", "115751.548000", "115754.048000", "115756.048000", "115758.548000", "115800.548000", "115803.048000", "115805.047000", "115807.548000", "115809.548000", "115812.048000", "115814.548000", "115816.548000", "115819.048000", "115821.048000", "115823.548000", "115825.548000", "115828.048000", "115830.048000", "115832.548000", "115834.548000", "115837.048000", "115839.548000", "115841.548000", "115844.048000", "115846.048000", "115848.548000", "115850.548000", "115853.048000", "115855.048000", "115857.547000", "115859.548000", "115902.048000", "115904.048000", "115906.548000", "115909.048000", "115911.048000", "115913.548000", "115915.548000", "115918.048000", "115920.048000", "115922.548000", "115924.548000", "115927.048000", "115929.048000", "115931.548000", "115933.548000", "115936.048000", "115938.548000", "115940.548000", "115943.048000", "115945.048000", "115947.548000", "115949.548000", "115952.048000", "115954.048000", "115956.548000", "115958.548000", "120001.048000", "120003.548000", "120005.548000", "120008.048000", "120010.048000", "120012.548000", "120014.548000", "120017.048000", "120019.048000", "120021.548000", "120023.548000", "120026.048000", "120028.048000", "120030.548000", "120032.548000", "120035.048000", "120037.548000", "120039.548000", "120042.048000", "120044.048000", "120046.548000", "120048.548000", "120051.048000", "120053.048000", "120055.548000", "120057.548000", "120100.047000", "120102.548000", "120104.548000", "120107.048000", "120109.048000", "120111.548000", "120113.548000", "120116.048000", "120118.048000", "120120.548000", "120122.548000", "120125.048000", "120127.048000", "120129.548000", "120132.048000", "120134.048000", "120136.548000", "120138.548000", "120141.048000", "120143.048000", "120145.548000", "120147.548000", "120150.048000", "120152.048000", "120154.548000", "120156.548000", "120159.048000", "120201.548000", "120203.548000", "120206.048000", "120208.048000", "120210.548000", "120212.548000", "120215.048000", "120217.048000", "120219.548000", "120221.548000", "120224.048000", "120226.548000", "120228.548000", "120231.048000", "120233.048000", "120235.548000", "120237.548000", "120240.048000", "120242.048000", "120244.548000", "120246.548000", "120249.048000", "120251.048000", "120253.548000", "120255.548000", "120258.048000", "120300.548000", "120302.547000", "120305.048000", "120307.048000", "120309.548000", "120311.548000", "120314.048000", "120316.048000", "120318.548000", "120320.548000", "120323.048000", "120325.548000", "120327.548000", "120330.048000", "120332.048000", "120334.548000", "120336.548000"],
      "InstanceNumber": [1, 2, 3, 4, 5, 6, 7, 8, 9, 10, 11, 12, 13, 14, 15, 16, 17, 18, 19, 20, 21, 22, 23, 24, 25, 26, 27, 28, 29, 30, 31, 32, 33, 34, 35, 36, 37, 38, 39, 40, 41, 42, 43, 44, 45, 46, 47, 48, 49, 50, 51, 52, 53, 54, 55, 56, 57, 58, 59, 60, 61, 62, 63, 64, 65, 66, 67, 68, 69, 70, 71, 72, 73, 74, 75, 76, 77, 78, 79, 80, 81, 82, 83, 84, 85, 86, 87, 88, 89, 90, 91, 92, 93, 94, 95, 96, 97, 98, 99, 100, 101, 102, 103, 104, 105, 106, 107, 108, 109, 110, 111, 112, 113, 114, 115, 116, 117, 118, 119, 120, 121, 122, 123, 124, 125, 126, 127, 128, 129, 130, 131, 132, 133, 134, 135, 136, 137, 138, 139, 140, 141, 142, 143, 144, 145, 146, 147, 148, 149, 150, 151, 152, 153, 154, 155],
      "LargestImagePixelValue": [2225, 2197, 2157, 2138, 2139, 2159, 2159, 2155, 2155, 2147, 2162, 2160, 2140, 2113, 2124, 2135, 2135, 2154, 2131, 2170, 2163, 2139, 2124, 2146, 2132, 2129, 2139, 2137, 2144, 2117, 2124, 2143, 2115, 2096, 2123, 2129, 2121, 2123, 2096, 2110, 2093, 2087, 2101, 2145, 2138, 2159, 2156, 2127, 2128, 2140, 2165, 2141, 2106, 2120, 2122, 2126, 2130, 2143, 2105, 2101, 2118, 2116, 2110, 2100, 2112, 2113, 2131, 2126, 2094, 2099, 2109, 2102, 2113, 2104, 2117, 2107, 2105, 2110, 2127, 2143, 2152, 2134, 2117, 2110, 2102, 2110, 2129, 2130, 2119, 2164, 2180, 2162, 2151, 2178, 2183, 2149, 2106, 2148, 2138, 2138, 2131, 2116, 2098, 2088, 2116, 2100, 2118, 2120, 2123, 2135, 2104, 2109, 2123, 2122, 2119, 2147, 2151, 2137, 2113, 2110, 2103, 2111, 2131, 2134, 2125, 2121, 2153, 2120, 2137, 2169, 2162, 2182, 2156, 2160, 2159, 2134, 2175, 2159, 2146, 2159, 2160, 2140, 2167, 2149, 2152, 2166, 2131, 2162, 2161, 2152, 2153, 2143, 2147, 2143, 2146],
      "WindowCenter": [598.0, 599.0, 600.0, 599.0, 597.0, 595.0, 596.0, 596.0, 596.0, 596.0, 598.0, 599.0, 598.0, 597.0, 597.0, 596.0, 597.0, 598.0, 599.0, 600.0, 599.0, 598.0, 597.0, 598.0, 598.0, 598.0, 598.0, 598.0, 599.0, 598.0, 597.0, 597.0, 596.0, 597.0, 597.0, 596.0, 597.0, 598.0, 598.0, 598.0, 598.0, 597.0, 598.0, 598.0, 598.0, 598.0, 597.0, 596.0, 597.0, 597.0, 599.0, 599.0, 599.0, 598.0, 596.0, 596.0, 598.0, 598.0, 596.0, 596.0, 597.0, 597.0, 598.0, 597.0, 597.0, 597.0, 597.0, 597.0, 597.0, 597.0, 597.0, 597.0, 598.0, 597.0, 597.0, 597.0, 597.0, 597.0, 597.0, 597.0, 598.0, 598.0, 597.0, 597.0, 597.0, 597.0, 596.0, 597.0, 597.0, 599.0, 600.0, 599.0, 597.0, 598.0, 599.0, 597.0, 597.0, 598.0, 598.0, 597.0, 598.0, 597.0, 596.0, 595.0, 596.0, 596.0, 597.0, 597.0, 599.0, 598.0, 596.0, 596.0, 597.0, 596.0, 595.0, 597.0, 598.0, 597.0, 597.0, 597.0, 596.0, 595.0, 596.0, 598.0, 598.0, 597.0, 598.0, 597.0, 597.0, 597.0, 597.0, 598.0, 599.0, 599.0, 599.0, 597.0, 598.0, 598.0, 598.0, 598.0, 598.0, 597.0, 598.0, 598.0, 599.0, 598.0, 597.0, 597.0, 599.0, 598.0, 598.0, 597.0, 597.0, 597.0, 596.0],
      "WindowWidth": [1289.0, 1290.0, 1294.0, 1292.0, 1287.0, 1283.0, 1284.0, 1285.0, 1284.0, 1285.0, 1290.0, 1292.0, 1288.0, 1286.0, 1286.0, 1286.0, 1286.0, 1290.0, 1292.0, 1295.0, 1292.0, 1290.0, 1288.0, 1289.0, 1290.0, 1289.0, 1288.0, 1289.0, 1291.0, 1290.0, 1288.0, 1286.0, 1285.0, 1288.0, 1287.0, 1285.0, 1287.0, 1289.0, 1290.0, 1290.0, 1289.0, 1288.0, 1289.0, 1290.0, 1290.0, 1289.0, 1286.0, 1285.0, 1287.0, 1288.0, 1290.0, 1291.0, 1292.0, 1289.0, 1286.0, 1286.0, 1289.0, 1290.0, 1286.0, 1285.0, 1287.0, 1288.0, 1289.0, 1287.0, 1287.0, 1287.0, 1287.0, 1287.0, 1288.0, 1288.0, 1287.0, 1288.0, 1290.0, 1287.0, 1287.0, 1286.0, 1288.0, 1288.0, 1286.0, 1287.0, 1290.0, 1290.0, 1286.0, 1288.0, 1288.0, 1287.0, 1285.0, 1287.0, 1287.0, 1291.0, 1293.0, 1291.0, 1288.0, 1289.0, 1290.0, 1288.0, 1287.0, 1290.0, 1290.0, 1287.0, 1289.0, 1288.0, 1285.0, 1282.0, 1284.0, 1284.0, 1287.0, 1288.0, 1291.0, 1291.0, 1286.0, 1286.0, 1288.0, 1285.0, 1283.0, 1287.0, 1289.0, 1287.0, 1288.0, 1286.0, 1284.0, 1282.0, 1285.0, 1289.0, 1289.0, 1288.0, 1288.0, 1288.0, 1288.0, 1287.0, 1288.0, 1289.0, 1291.0, 1290.0, 1290.0, 1287.0, 1289.0, 1289.0, 1290.0, 1289.0, 1289.0, 1287.0, 1289.0, 1289.0, 1290.0, 1290.0, 1287.0, 1287.0, 1290.0, 1289.0, 1289.0, 1287.0, 1286.0, 1285.0, 1285.0]
    },
    "slices": {}
  }
}