{
  "AcquisitionMatrixPE": 74,
  "AcquisitionNumber": 1,
  "AcquisitionTime": "12:10:17.760000",
  "BandwidthPerPixelPhaseEncode": 25.497,
  "BaseResolution": 74,
  "BodyPartExamined": "BRAIN",
  "CoilCombinationMethod": "Sum of Squares",
  "ConsistencyInfo": "N4_VE11C_LATEST_20160120",
  "ConversionSoftware": "dcm2niix",
  "ConversionSoftwareVersion": "v1.0.20220720",
  "DerivedVendorReportedEchoSpacing": 0.000530004,
  "DeviceSerialNumber": "66018",
  "DwellTime": 3e-06,
  "EchoTime": 0.028,
  "EchoTrainLength": 74,
  "EffectiveEchoSpacing": 0.000530004,
  "FlipAngle": 80,
  "HeudiconvVersion": "0.12.2",
  "ImageOrientationPatientDICOM": [-0.0622749, 0.997751, -0.0247784, -0.0132412, -0.0256504, -0.999583],
  "ImageOrientationText": "Sag>Cor(-3.6)>Tra(0.8)",
  "ImageType": [
    "ORIGINAL",
    "PRIMARY",
    "M",
    "ND",
    "MOSAIC"
],
  "ImagingFrequency": 123.168,
  "InPlanePhaseEncodingDirectionDICOM": "ROW",
  "InstitutionAddress": "Stadium 1952,Princeton,NJ,US,08544",
  "InstitutionName": "Princeton University",
  "InstitutionalDepartmentName": "NeuroScience",
  "MRAcquisitionType": "2D",
  "MagneticFieldStrength": 3,
  "Manufacturer": "Siemens",
  "ManufacturersModelName": "Prisma",
  "Modality": "MR",
  "MultibandAccelerationFactor": 2,
  "NonlinearGradientCorrection": false,
  "PartialFourier": 1,
  "PatientPosition": "HFS",
  "PercentPhaseFOV": 100,
  "PercentSampling": 100,
  "PhaseEncodingDirection": "i",
  "PhaseEncodingSteps": 74,
  "PhaseResolution": 1,
  "PixelBandwidth": 2250,
  "ProcedureStepDescription": "NormaL_Robert^Tangrams",
  "ProtocolName": "func_task-Repeated_run-06",
  "PulseSequenceDetails": "%SiemensSeq%\\ep2d_bold",
  "ReceiveCoilActiveElements": "HC1-7",
  "ReceiveCoilName": "HeadNeck_64",
  "ReconMatrixPE": 74,
  "RefLinesPE": 12,
  "RepetitionTime": 2.27,
  "SAR": 0.0709141,
  "ScanOptions": "FS",
  "ScanningSequence": "EP",
  "SequenceName": "*epfid2d1_74",
  "SequenceVariant": "SK",
  "SeriesDescription": "func_task-Repeated_run-06",
  "SeriesNumber": 30,
  "ShimSetting": [749, 484, 2010, 400, -94, -327, 262, 73],
  "SliceThickness": 3,
  "SliceTiming": [1.0925, 0, 1.155, 0.0625, 1.22, 0.1275, 1.285, 0.1925, 1.35, 0.255, 1.4125, 0.32, 1.4775, 0.385, 1.5425, 0.45, 1.605, 0.5125, 1.67, 0.5775, 1.735, 0.6425, 1.7975, 0.705, 1.8625, 0.77, 1.9275, 0.835, 1.9925, 0.9, 2.055, 0.9625, 2.12, 1.0275, 2.185, 1.0925, 0, 1.155, 0.0625, 1.22, 0.1275, 1.285, 0.1925, 1.35, 0.255, 1.4125, 0.32, 1.4775, 0.385, 1.5425, 0.45, 1.605, 0.5125, 1.67, 0.5775, 1.735, 0.6425, 1.7975, 0.705, 1.8625, 0.77, 1.9275, 0.835, 1.9925, 0.9, 2.055, 0.9625, 2.12, 1.0275, 2.185],
  "SoftwareVersions": "syngo MR E11",
  "SpacingBetweenSlices": 3,
  "StationName": "AWP66018",
  "TaskName": "Repeated",
  "TotalReadoutTime": 0.0386903,
  "TxRefAmp": 239.472,
  "dcmmeta_affine": [
    [0.18682464957237244, -0.039723485708236694, -2.9939136505126953, 99.8792953491211],
    [-2.9932541847229004, -0.07695113867521286, -0.18576250970363617, 116.10908508300781],
    [-0.07433530688285828, 2.9987497329711914, -0.044426288455724716, -123.18217468261719],
    [0.0, 0.0, 0.0, 1.0]
],
  "dcmmeta_reorient_transform": [
    [0.0, -1.0, 0.0, 73.0],
    [1.0, 0.0, 0.0, 0.0],
    [0.0, 0.0, 1.0, 0.0],
    [0.0, 0.0, 0.0, 1.0]
],
  "dcmmeta_shape": [74, 74, 70, 144],
  "dcmmeta_slice_dim": 2,
  "dcmmeta_version": 0.6,
  "global": {
    "const": {
      "AcquisitionMatrix": [0, 74, 74, 0],
      "AngioFlag": "N",
      "BitsAllocated": 16,
      "BitsStored": 12,
      "BodyPartExamined": "BRAIN",
      "Columns": 666,
      "EchoNumbers": 1,
      "EchoTime": 28.0,
      "EchoTrainLength": 74,
      "FlipAngle": 80.0,
      "HighBit": 11,
      "ImageOrientationPatient": [-0.0622748810882, 0.9977514060481, -0.0247784364819, -0.0132411618497, -0.0256503798308, -0.9995832779951],
      "ImagePositionPatient": [-29.921236105502, -973.71736322513, 1005.3597660163],
      "ImageType": [
        "ORIGINAL",
        "PRIMARY",
        "M",
        "ND",
        "MOSAIC"
],
      "ImagedNucleus": "1H",
      "ImagingFrequency": 123.167555,
      "InPlanePhaseEncodingDirection": "ROW",
      "MRAcquisitionType": "2D",
      "MagneticFieldStrength": 3.0,
      "Manufacturer": "SIEMENS",
      "ManufacturerModelName": "Prisma",
      "Modality": "MR",
      "NumberOfAverages": 1.0,
      "NumberOfPhaseEncodingSteps": 74,
      "PercentPhaseFieldOfView": 100.0,
      "PercentSampling": 100.0,
      "PerformedProcedureStepStartTime": "093329.673000",
      "PhotometricInterpretation": "MONOCHROME2",
      "PixelBandwidth": 2250.0,
      "PixelRepresentation": 0,
      "PixelSpacing": [3.0, 3.0],
      "ProtocolName": "func_task-Repeated_run-06",
      "RepetitionTime": 2270.0,
      "Rows": 666,
      "SAR": 0.07091407731261,
      "SamplesPerPixel": 1,
      "ScanOptions": "FS",
      "ScanningSequence": "EP",
      "SequenceName": "*epfid2d1_74",
      "SequenceVariant": "SK",
      "SeriesDescription": "func_task-Repeated_run-06",
      "SeriesNumber": 30,
      "SeriesTime": "121020.846000",
      "SliceLocation": -105.04205721653,
      "SliceThickness": 3.0,
      "SmallestImagePixelValue": 0,
      "SoftwareVersions": "syngo MR E11",
      "SpacingBetweenSlices": 3.0000000362059,
      "SpecificCharacterSet": "ISO_IR 100",
      "StudyID": "1",
      "StudyTime": "093329.545000",
      "TransmitCoilName": "Body",
      "VariableFlipAngleFlag": "N",
      "WindowCenterWidthExplanation": "Algo1",
      "dBdt": 0.0},
    "slices": {}
  },
  "time": {
    "samples": {
      "AcquisitionNumber": [1, 2, 3, 4, 5, 6, 7, 8, 9, 10, 11, 12, 13, 14, 15, 16, 17, 18, 19, 20, 21, 22, 23, 24, 25, 26, 27, 28, 29, 30, 31, 32, 33, 34, 35, 36, 37, 38, 39, 40, 41, 42, 43, 44, 45, 46, 47, 48, 49, 50, 51, 52, 53, 54, 55, 56, 57, 58, 59, 60, 61, 62, 63, 64, 65, 66, 67, 68, 69, 70, 71, 72, 73, 74, 75, 76, 77, 78, 79, 80, 81, 82, 83, 84, 85, 86, 87, 88, 89, 90, 91, 92, 93, 94, 95, 96, 97, 98, 99, 100, 101, 102, 103, 104, 105, 106, 107, 108, 109, 110, 111, 112, 113, 114, 115, 116, 117, 118, 119, 120, 121, 122, 123, 124, 125, 126, 127, 128, 129, 130, 131, 132, 133, 134, 135, 136, 137, 138, 139, 140, 141, 142, 143, 144],
      "AcquisitionTime": ["121017.760000", "121020.030000", "121022.300000", "121024.570000", "121026.840000", "121029.110000", "121031.380000", "121033.650000", "121035.920000", "121038.190000", "121040.460000", "121042.730000", "121045.000000", "121047.270000", "121049.540000", "121051.810000", "121054.080000", "121056.350000", "121058.620000", "121100.890000", "121103.160000", "121105.430000", "121107.700000", "121109.970000", "121112.240000", "121114.510000", "121116.780000", "121119.050000", "121121.320000", "121123.590000", "121125.860000", "121128.130000", "121130.400000", "121132.670000", "121134.940000", "121137.210000", "121139.480000", "121141.750000", "121144.020000", "121146.290000", "121148.560000", "121150.830000", "121153.100000", "121155.370000", "121157.640000", "121159.910000", "121202.180000", "121204.450000", "121206.720000", "121208.990000", "121211.260000", "121213.530000", "121215.800000", "121218.070000", "121220.340000", "121222.610000", "121224.880000", "121227.150000", "121229.420000", "121231.690000", "121233.960000", "121236.230000", "121238.500000", "121240.770000", "121243.040000", "121245.310000", "121247.580000", "121249.850000", "121252.120000", "121254.390000", "121256.660000", "121258.930000", "121301.200000", "121303.470000", "121305.740000", "121308.010000", "121310.280000", "121312.550000", "121314.820000", "121317.090000", "121319.360000", "121321.630000", "121323.900000", "121326.170000", "121328.440000", "121330.710000", "121332.980000", "121335.250000", "121337.520000", "121339.790000", "121342.060000", "121344.330000", "121346.600000", "121348.870000", "121351.140000", "121353.410000", "121355.680000", "121357.950000", "121400.220000", "121402.490000", "121404.760000", "121407.030000", "121409.300000", "121411.570000", "121413.840000", "121416.110000", "121418.380000", "121420.650000", "121422.920000", "121425.190000", "121427.460000", "121429.730000", "121432.000000", "121434.270000", "121436.540000", "121438.810000", "121441.080000", "121443.350000", "121445.620000", "121447.890000", "121450.160000", "121452.430000", "121454.700000", "121456.970000", "121459.240000", "121501.510000", "121503.780000", "121506.050000", "121508.320000", "121510.590000", "121512.860000", "121515.130000", "121517.400000", "121519.670000", "121521.940000", "121524.210000", "121526.480000", "121528.750000", "121531.020000", "121533.290000", "121535.560000", "121537.830000", "121540.100000", "121542.370000"],
      "ContentTime": ["121020.872000", "121022.845000", "121024.844000", "121027.344000", "121029.344000", "121031.844000", "121033.844000", "121036.344000", "121038.845000", "121040.845000", "121043.344000", "121045.344000", "121047.844000", "121049.844000", "121052.344000", "121054.344000", "121056.845000", "121058.844000", "121101.344000", "121103.844000", "121105.844000", "121108.344000", "121110.344000", "121112.845000", "121114.845000", "121117.344000", "121119.344000", "121121.844000", "121123.844000", "121126.344000", "121128.344000", "121130.845000", "121132.845000", "121135.344000", "121137.844000", "121139.844000", "121142.344000", "121144.344000", "121146.844000", "121148.845000", "121151.344000", "121153.344000", "121155.844000", "121157.844000", "121200.344000", "121202.844000", "121204.845000", "121207.345000", "121209.344000", "121211.844000", "121213.844000", "121216.344000", "121218.344000", "121220.844000", "121222.845000", "121225.345000", "121227.844000", "121229.844000", "121232.344000", "121234.344000", "121236.844000", "121238.844000", "121241.345000", "121243.345000", "121245.844000", "121247.844000", "121250.344000", "121252.344000", "121254.844000", "121256.844000", "121259.345000", "121301.844000", "121303.844000", "121306.344000", "121308.344000", "121310.844000", "121312.844000", "121315.345000", "121317.354000", "121319.844000", "121321.844000", "121324.344000", "121326.344000", "121328.844000", "121331.344000", "121333.345000", "121335.845000", "121337.844000", "121340.344000", "121342.344000", "121344.844000", "121347.344000", "121349.344000", "121351.345000", "121353.844000", "121356.344000", "121358.344000", "121400.844000", "121402.844000", "121405.344000", "121407.345000", "121409.845000", "121411.844000", "121414.344000", "121416.344000", "121418.844000", "121420.844000", "121423.344000", "121425.845000", "121427.846000", "121430.344000", "121432.344000", "121434.844000", "121436.844000", "121439.344000", "121441.344000", "121443.845000", "121445.845000", "121448.344000", "121450.844000", "121452.844000", "121455.344000", "121457.344000", "121459.845000", "121501.845000", "121504.344000", "121506.344000", "121508.844000", "121510.844000", "121513.344000", "121515.344000", "121517.845000", "121519.845000", "121522.344000", "121524.844000", "121526.844000", "121529.344000", "121531.344000", "121533.844000", "121535.845000", "121538.345000", "121540.344000", "121542.844000", "121544.844000"],
      "InstanceCreationTime": ["121020.872000", "121022.845000", "121024.844000", "121027.344000", "121029.344000", "121031.844000", "121033.844000", "121036.344000", "121038.845000", "121040.845000", "121043.344000", "121045.344000", "121047.844000", "121049.844000", "121052.344000", "121054.344000", "121056.845000", "121058.844000", "121101.344000", "121103.844000", "121105.844000", "121108.344000", "121110.344000", "121112.845000", "121114.845000", "121117.344000", "121119.344000", "121121.844000", "121123.844000", "121126.344000", "121128.344000", "121130.845000", "121132.845000", "121135.344000", "121137.844000", "121139.844000", "121142.344000", "121144.344000", "121146.844000", "121148.845000", "121151.344000", "121153.344000", "121155.844000", "121157.844000", "121200.344000", "121202.844000", "121204.845000", "121207.345000", "121209.344000", "121211.844000", "121213.844000", "121216.344000", "121218.344000", "121220.844000", "121222.845000", "121225.345000", "121227.844000", "121229.844000", "121232.344000", "121234.344000", "121236.844000", "121238.844000", "121241.345000", "121243.345000", "121245.844000", "121247.844000", "121250.344000", "121252.344000", "121254.844000", "121256.844000", "121259.345000", "121301.844000", "121303.844000", "121306.344000", "121308.344000", "121310.844000", "121312.844000", "121315.345000", "121317.354000", "121319.844000", "121321.844000", "121324.344000", "121326.344000", "121328.844000", "121331.344000", "121333.345000", "121335.845000", "121337.844000", "121340.344000", "121342.344000", "121344.844000", "121347.344000", "121349.344000", "121351.345000", "121353.844000", "121356.344000", "121358.344000", "121400.844000", "121402.844000", "121405.344000", "121407.345000", "121409.845000", "121411.844000", "121414.344000", "121416.344000", "121418.844000", "121420.844000", "121423.344000", "121425.845000", "121427.846000", "121430.344000", "121432.344000", "121434.844000", "121436.844000", "121439.344000", "121441.344000", "121443.845000", "121445.845000", "121448.344000", "121450.844000", "121452.844000", "121455.344000", "121457.344000", "121459.845000", "121501.845000", "121504.344000", "121506.344000", "121508.844000", "121510.844000", "121513.344000", "121515.344000", "121517.845000", "121519.845000", "121522.344000", "121524.844000", "121526.844000", "121529.344000", "121531.344000", "121533.844000", "121535.845000", "121538.345000", "121540.344000", "121542.844000", "121544.844000"],
      "InstanceNumber": [1, 2, 3, 4, 5, 6, 7, 8, 9, 10, 11, 12, 13, 14, 15, 16, 17, 18, 19, 20, 21, 22, 23, 24, 25, 26, 27, 28, 29, 30, 31, 32, 33, 34, 35, 36, 37, 38, 39, 40, 41, 42, 43, 44, 45, 46, 47, 48, 49, 50, 51, 52, 53, 54, 55, 56, 57, 58, 59, 60, 61, 62, 63, 64, 65, 66, 67, 68, 69, 70, 71, 72, 73, 74, 75, 76, 77, 78, 79, 80, 81, 82, 83, 84, 85, 86, 87, 88, 89, 90, 91, 92, 93, 94, 95, 96, 97, 98, 99, 100, 101, 102, 103, 104, 105, 106, 107, 108, 109, 110, 111, 112, 113, 114, 115, 116, 117, 118, 119, 120, 121, 122, 123, 124, 125, 126, 127, 128, 129, 130, 131, 132, 133, 134, 135, 136, 137, 138, 139, 140, 141, 142, 143, 144],
      "LargestImagePixelValue": [2222, 2184, 2185, 2170, 2174, 2184, 2185, 2206, 2188, 2170, 2180, 2183, 2174, 2183, 2199, 2196, 2181, 2188, 2203, 2201, 2198, 2190, 2204, 2201, 2197, 2172, 2203, 2190, 2198, 2192, 2196, 2180, 2186, 2199, 2182, 2191, 2182, 2179, 2189, 2207, 2192, 2197, 2199, 2193, 2193, 2191, 2193, 2205, 2195, 2199, 2187, 2198, 2181, 2194, 2193, 2200, 2206, 2203, 2190, 2203, 2209, 2213, 2205, 2203, 2221, 2196, 2178, 2190, 2197, 2180, 2179, 2185, 2218, 2199, 2203, 2194, 2189, 2195, 2198, 2209, 2195, 2214, 2190, 2205, 2210, 2207, 2206, 2215, 2205, 2218, 2213, 2215, 2202, 2213, 2203, 2215, 2227, 2206, 2200, 2194, 2218, 2207, 2214, 2224, 2214, 2208, 2210, 2217, 2201, 2207, 2211, 2204, 2228, 2213, 2188, 2196, 2206, 2200, 2212, 2212, 2203, 2212, 2214, 2215, 2209, 2219, 2176, 2216, 2194, 2184, 2202, 2211, 2199, 2230, 2210, 2206, 2210, 2215, 2213, 2201, 2214, 2214, 2217, 2214],
      "WindowCenter": [598.0, 598.0, 599.0, 599.0, 597.0, 597.0, 598.0, 598.0, 598.0, 599.0, 599.0, 598.0, 597.0, 598.0, 599.0, 597.0, 597.0, 598.0, 598.0, 598.0, 597.0, 597.0, 598.0, 597.0, 596.0, 597.0, 598.0, 598.0, 596.0, 595.0, 597.0, 597.0, 596.0, 599.0, 600.0, 598.0, 597.0, 598.0, 597.0, 597.0, 598.0, 599.0, 598.0, 597.0, 597.0, 597.0, 597.0, 598.0, 597.0, 597.0, 597.0, 596.0, 595.0, 596.0, 597.0, 598.0, 597.0, 597.0, 598.0, 598.0, 597.0, 597.0, 597.0, 598.0, 598.0, 598.0, 597.0, 596.0, 595.0, 596.0, 596.0, 597.0, 598.0, 598.0, 597.0, 597.0, 596.0, 597.0, 596.0, 596.0, 597.0, 600.0, 599.0, 597.0, 597.0, 598.0, 598.0, 599.0, 597.0, 598.0, 597.0, 597.0, 597.0, 598.0, 598.0, 599.0, 598.0, 597.0, 596.0, 597.0, 597.0, 597.0, 598.0, 597.0, 597.0, 597.0, 598.0, 596.0, 596.0, 598.0, 599.0, 599.0, 600.0, 598.0, 597.0, 597.0, 596.0, 597.0, 598.0, 598.0, 597.0, 598.0, 597.0, 596.0, 596.0, 597.0, 597.0, 598.0, 598.0, 597.0, 598.0, 597.0, 597.0, 598.0, 598.0, 597.0, 598.0, 598.0, 598.0, 598.0, 597.0, 597.0, 596.0, 596.0],
      "WindowWidth": [1289.0, 1289.0, 1291.0, 1290.0, 1287.0, 1287.0, 1288.0, 1289.0, 1289.0, 1291.0, 1291.0, 1288.0, 1287.0, 1290.0, 1291.0, 1287.0, 1286.0, 1287.0, 1288.0, 1287.0, 1285.0, 1287.0, 1289.0, 1286.0, 1283.0, 1287.0, 1289.0, 1287.0, 1282.0, 1282.0, 1286.0, 1285.0, 1284.0, 1291.0, 1293.0, 1289.0, 1286.0, 1289.0, 1287.0, 1286.0, 1290.0, 1291.0, 1288.0, 1285.0, 1286.0, 1285.0, 1285.0, 1287.0, 1285.0, 1285.0, 1286.0, 1284.0, 1282.0, 1284.0, 1287.0, 1287.0, 1286.0, 1286.0, 1289.0, 1289.0, 1286.0, 1285.0, 1287.0, 1288.0, 1289.0, 1288.0, 1286.0, 1284.0, 1282.0, 1283.0, 1284.0, 1285.0, 1288.0, 1287.0, 1286.0, 1285.0, 1283.0, 1285.0, 1284.0, 1285.0, 1286.0, 1293.0, 1291.0, 1287.0, 1287.0, 1288.0, 1289.0, 1290.0, 1286.0, 1287.0, 1286.0, 1285.0, 1286.0, 1288.0, 1289.0, 1290.0, 1288.0, 1285.0, 1284.0, 1286.0, 1286.0, 1286.0, 1288.0, 1286.0, 1285.0, 1285.0, 1288.0, 1284.0, 1285.0, 1287.0, 1291.0, 1290.0, 1292.0, 1288.0, 1286.0, 1286.0, 1284.0, 1286.0, 1289.0, 1288.0, 1287.0, 1287.0, 1286.0, 1284.0, 1283.0, 1286.0, 1286.0, 1287.0, 1287.0, 1287.0, 1288.0, 1286.0, 1286.0, 1287.0, 1287.0, 1287.0, 1287.0, 1288.0, 1287.0, 1287.0, 1286.0, 1285.0, 1284.0, 1284.0]
    },
    "slices": {}
  }
}