{
  "AcquisitionMatrixPE": 74,
  "AcquisitionNumber": 1,
  "AcquisitionTime": "14:35:56.242500",
  "BandwidthPerPixelPhaseEncode": 25.497,
  "BaseResolution": 74,
  "BodyPartExamined": "BRAIN",
  "CoilCombinationMethod": "Sum of Squares",
  "ConsistencyInfo": "N4_VE11C_LATEST_20160120",
  "ConversionSoftware": "dcm2niix",
  "ConversionSoftwareVersion": "v1.0.20220720",
  "DerivedVendorReportedEchoSpacing": 0.000530004,
  "DeviceSerialNumber": "45031",
  "DwellTime": 3e-06,
  "EchoTime": 0.028,
  "EchoTrainLength": 74,
  "EffectiveEchoSpacing": 0.000530004,
  "FlipAngle": 80,
  "HeudiconvVersion": "0.12.2",
  "ImageOrientationPatientDICOM": [0.998856, 0.0355046, -0.0320433, -0.043087, 0.958824, -0.280714],
  "ImageOrientationText": "Tra>Cor(-16.4)>Sag(-1.2)",
  "ImageType": [
    "ORIGINAL",
    "PRIMARY",
    "M",
    "ND",
    "MOSAIC"
],
  "ImagingFrequency": 123.25,
  "InPlanePhaseEncodingDirectionDICOM": "COL",
  "InstitutionAddress": "Washington and Faculty Rd. - Building 25 25,Princeton,NJ,US,08540",
  "InstitutionName": "Princeton University - Neuroscience Institute",
  "InstitutionalDepartmentName": "Department",
  "MRAcquisitionType": "2D",
  "MagneticFieldStrength": 3,
  "Manufacturer": "Siemens",
  "ManufacturersModelName": "Skyra",
  "Modality": "MR",
  "MultibandAccelerationFactor": 2,
  "NonlinearGradientCorrection": false,
  "PartialFourier": 1,
  "PatientPosition": "HFS",
  "PercentPhaseFOV": 100,
  "PercentSampling": 100,
  "PhaseEncodingDirection": "j-",
  "PhaseEncodingSteps": 74,
  "PhaseResolution": 1,
  "PixelBandwidth": 2250,
  "ProcedureStepDescription": "NormaL_Robert^Tangrams",
  "ProtocolName": "func_task-PreExposure_run-01",
  "PulseSequenceDetails": "%SiemensSeq%\\ep2d_bold",
  "ReceiveCoilActiveElements": "HC1-7",
  "ReceiveCoilName": "HeadNeck_64",
  "ReconMatrixPE": 74,
  "RefLinesPE": 12,
  "RepetitionTime": 1.5,
  "SAR": 0.0981646,
  "ScanOptions": "FS",
  "ScanningSequence": "EP",
  "SequenceName": "*epfid2d1_74",
  "SequenceVariant": "SK",
  "SeriesDescription": "func_task-PreExposure_run-01",
  "SeriesNumber": 6,
  "ShimSetting": [3366, 8822, 9305, 545, 78, -114, 33, 337],
  "SliceThickness": 3,
  "SliceTiming": [0.7075, 0, 0.7725, 0.065, 0.8375, 0.13, 0.9, 0.1925, 0.965, 0.2575, 1.03, 0.3225, 1.095, 0.385, 1.1575, 0.45, 1.2225, 0.515, 1.2875, 0.58, 1.35, 0.6425, 1.415, 0.7075, 0, 0.7725, 0.065, 0.8375, 0.13, 0.9, 0.1925, 0.965, 0.2575, 1.03, 0.3225, 1.095, 0.385, 1.1575, 0.45, 1.2225, 0.515, 1.2875, 0.58, 1.35, 0.6425, 1.415],
  "SoftwareVersions": "syngo MR E11",
  "SpacingBetweenSlices": 3,
  "StationName": "AWP45031",
  "TaskName": "PreExposure",
  "TotalReadoutTime": 0.0386903,
  "TxRefAmp": 343.369,
  "dcmmeta_affine": [
    [-2.9965670108795166, -0.12926089763641357, -0.06227169185876846, 113.39287567138672],
    [-0.10651378333568573, 2.8764712810516357, -0.8453211188316345, -98.9015884399414],
    [-0.0961298942565918, 0.8421428203582764, 2.8777692317962646, -87.2928695678711],
    [0.0, 0.0, 0.0, 1.0]
],
  "dcmmeta_reorient_transform": [
    [0.0, -1.0, 0.0, 73.0],
    [1.0, 0.0, 0.0, 0.0],
    [0.0, 0.0, 1.0, 0.0],
    [0.0, 0.0, 0.0, 1.0]
],
  "dcmmeta_shape": [74, 74, 46, 176],
  "dcmmeta_slice_dim": 2,
  "dcmmeta_version": 0.6,
  "global": {
    "const": {
      "AcquisitionMatrix": [74, 0, 0, 74],
      "AngioFlag": "N",
      "BitsAllocated": 16,
      "BitsStored": 12,
      "BodyPartExamined": "BRAIN",
      "Columns": 518,
      "EchoNumbers": 1,
      "EchoTime": 28.0,
      "EchoTrainLength": 74,
      "FlipAngle": 80.0,
      "HighBit": 11,
      "ImageOrientationPatient": [0.99885567065097, 0.03550459405749, -0.0320432989751, -0.0430869655738, 0.95882376387535, -0.2807142732843],
      "ImagePositionPatient": [-740.49878875259, -773.30350393918, 182.48010190731],
      "ImageType": [
        "ORIGINAL",
        "PRIMARY",
        "M",
        "ND",
        "MOSAIC"
],
      "ImagedNucleus": "1H",
      "ImagingFrequency": 123.249897,
      "InPlanePhaseEncodingDirection": "COL",
      "MRAcquisitionType": "2D",
      "MagneticFieldStrength": 3.0,
      "Manufacturer": "SIEMENS",
      "ManufacturerModelName": "Skyra",
      "Modality": "MR",
      "NumberOfAverages": 1.0,
      "NumberOfPhaseEncodingSteps": 74,
      "PercentPhaseFieldOfView": 100.0,
      "PercentSampling": 100.0,
      "PerformedProcedureStepStartTime": "134742.073000",
      "PhotometricInterpretation": "MONOCHROME2",
      "PixelBandwidth": 2250.0,
      "PixelRepresentation": 0,
      "PixelSpacing": [3.0, 3.0],
      "ProtocolName": "func_task-PreExposure_run-01",
      "RepetitionTime": 1500.0,
      "Rows": 518,
      "SAR": 0.09816457982579,
      "SamplesPerPixel": 1,
      "ScanOptions": "FS",
      "ScanningSequence": "EP",
      "SequenceName": "*epfid2d1_74",
      "SequenceVariant": "SK",
      "SeriesDescription": "func_task-PreExposure_run-01",
      "SeriesNumber": 6,
      "SeriesTime": "143640.279000",
      "SliceLocation": -58.222092860793,
      "SliceThickness": 3.0,
      "SmallestImagePixelValue": 0,
      "SoftwareVersions": "syngo MR E11",
      "SpacingBetweenSlices": 3.0000001094556,
      "SpecificCharacterSet": "ISO_IR 100",
      "StudyID": "1",
      "StudyTime": "134742.003000",
      "TransmitCoilName": "Body",
      "VariableFlipAngleFlag": "N",
      "WindowCenterWidthExplanation": "Algo1",
      "dBdt": 0.0},
    "slices": {}
  },
  "time": {
    "samples": {
      "AcquisitionNumber": [1, 2, 3, 4, 5, 6, 7, 8, 9, 10, 11, 12, 13, 14, 15, 16, 17, 18, 19, 20, 21, 22, 23, 24, 25, 26, 27, 28, 29, 30, 31, 32, 33, 34, 35, 36, 37, 38, 39, 40, 41, 42, 43, 44, 45, 46, 47, 48, 49, 50, 51, 52, 53, 54, 55, 56, 57, 58, 59, 60, 61, 62, 63, 64, 65, 66, 67, 68, 69, 70, 71, 72, 73, 74, 75, 76, 77, 78, 79, 80, 81, 82, 83, 84, 85, 86, 87, 88, 89, 90, 91, 92, 93, 94, 95, 96, 97, 98, 99, 100, 101, 102, 103, 104, 105, 106, 107, 108, 109, 110, 111, 112, 113, 114, 115, 116, 117, 118, 119, 120, 121, 122, 123, 124, 125, 126, 127, 128, 129, 130, 131, 132, 133, 134, 135, 136, 137, 138, 139, 140, 141, 142, 143, 144, 145, 146, 147, 148, 149, 150, 151, 152, 153, 154, 155, 156, 157, 158, 159, 160, 161, 162, 163, 164, 165, 166, 167, 168, 169, 170, 171, 172, 173, 174, 175, 176],
      "AcquisitionTime": ["143556.242500", "143557.742500", "143559.242500", "143600.742500", "143602.242500", "143603.742500", "143605.242500", "143606.742500", "143608.242500", "143609.742500", "143611.242500", "143612.742500", "143614.242500", "143615.742500", "143617.242500", "143618.742500", "143620.242500", "143621.742500", "143623.242500", "143624.742500", "143626.242500", "143627.742500", "143629.242500", "143630.742500", "143632.242500", "143633.742500", "143635.242500", "143636.742500", "143638.242500", "143639.742500", "143641.242500", "143642.742500", "143644.242500", "143645.742500", "143647.242500", "143648.742500", "143650.242500", "143651.742500", "143653.242500", "143654.742500", "143656.242500", "143657.742500", "143659.242500", "143700.742500", "143702.242500", "143703.742500", "143705.242500", "143706.742500", "143708.242500", "143709.742500", "143711.242500", "143712.742500", "143714.242500", "143715.742500", "143717.242500", "143718.742500", "143720.242500", "143721.742500", "143723.242500", "143724.742500", "143726.242500", "143727.742500", "143729.242500", "143730.742500", "143732.242500", "143733.742500", "143735.242500", "143736.742500", "143738.242500", "143739.742500", "143741.242500", "143742.742500", "143744.242500", "143745.742500", "143747.242500", "143748.742500", "143750.242500", "143751.742500", "143753.242500", "143754.742500", "143756.242500", "143757.742500", "143759.242500", "143800.742500", "143802.242500", "143803.742500", "143805.242500", "143806.742500", "143808.242500", "143809.742500", "143811.242500", "143812.742500", "143814.242500", "143815.742500", "143817.242500", "143818.742500", "143820.242500", "143821.742500", "143823.242500", "143824.742500", "143826.242500", "143827.742500", "143829.242500", "143830.742500", "143832.242500", "143833.742500", "143835.242500", "143836.742500", "143838.242500", "143839.742500", "143841.242500", "143842.742500", "143844.242500", "143845.742500", "143847.242500", "143848.742500", "143850.242500", "143851.742500", "143853.242500", "143854.742500", "143856.242500", "143857.742500", "143859.242500", "143900.742500", "143902.242500", "143903.742500", "143905.242500", "143906.742500", "143908.242500", "143909.742500", "143911.242500", "143912.742500", "143914.242500", "143915.742500", "143917.242500", "143918.742500", "143920.242500", "143921.742500", "143923.242500", "143924.742500", "143926.242500", "143927.742500", "143929.242500", "143930.742500", "143932.242500", "143933.742500", "143935.242500", "143936.742500", "143938.242500", "143939.742500", "143941.242500", "143942.742500", "143944.242500", "143945.742500", "143947.242500", "143948.742500", "143950.242500", "143951.742500", "143953.242500", "143954.742500", "143956.242500", "143957.742500", "143959.242500", "144000.742500", "144002.242500", "144003.742500", "144005.242500", "144006.742500", "144008.242500", "144009.742500", "144011.242500", "144012.742500", "144014.242500", "144015.742500", "144017.242500", "144018.742500"],
      "ContentTime": ["143640.283000", "143640.287000", "143640.290000", "143640.292000", "143640.301000", "143640.303000", "143640.306000", "143640.309000", "143640.312000", "143640.315000", "143640.317000", "143640.320000", "143640.323000", "143640.327000", "143640.330000", "143640.333000", "143640.363000", "143640.366000", "143640.369000", "143640.371000", "143640.380000", "143640.383000", "143640.386000", "143640.389000", "143640.392000", "143640.394000", "143640.397000", "143640.400000", "143720.277000", "143720.280000", "143720.282000", "143720.286000", "143720.288000", "143720.291000", "143720.294000", "143720.297000", "143720.299000", "143720.302000", "143720.305000", "143720.308000", "143720.310000", "143720.313000", "143720.316000", "143720.319000", "143720.322000", "143720.324000", "143720.327000", "143720.330000", "143720.333000", "143720.335000", "143720.338000", "143720.341000", "143720.344000", "143720.346000", "143720.349000", "143800.278000", "143800.281000", "143800.284000", "143800.286000", "143800.289000", "143800.292000", "143800.295000", "143800.297000", "143800.300000", "143800.303000", "143800.306000", "143800.309000", "143800.311000", "143800.314000", "143800.317000", "143800.320000", "143800.323000", "143800.326000", "143800.328000", "143800.331000", "143800.334000", "143800.337000", "143800.339000", "143800.342000", "143800.345000", "143800.348000", "143800.351000", "143840.278000", "143840.281000", "143840.284000", "143840.287000", "143840.289000", "143840.292000", "143840.295000", "143840.298000", "143840.301000", "143840.303000", "143840.306000", "143840.309000", "143840.312000", "143840.315000", "143840.318000", "143840.320000", "143840.323000", "143840.334000", "143840.337000", "143840.340000", "143840.343000", "143840.346000", "143840.349000", "143840.351000", "143840.354000", "143840.357000", "143920.278000", "143920.281000", "143920.284000", "143920.287000", "143920.289000", "143920.292000", "143920.295000", "143920.298000", "143920.300000", "143920.303000", "143920.306000", "143920.309000", "143920.311000", "143920.314000", "143920.317000", "143920.320000", "143920.323000", "143920.325000", "143920.328000", "143920.331000", "143920.334000", "143920.336000", "143920.339000", "143920.342000", "143920.345000", "143920.348000", "143920.350000", "144000.278000", "144000.281000", "144000.284000", "144000.287000", "144000.289000", "144000.292000", "144000.295000", "144000.298000", "144000.301000", "144000.304000", "144000.306000", "144000.309000", "144000.312000", "144000.315000", "144000.317000", "144000.320000", "144000.323000", "144000.326000", "144000.329000", "144000.331000", "144000.334000", "144000.337000", "144000.340000", "144000.343000", "144000.345000", "144000.348000", "144000.351000", "144020.278000", "144020.281000", "144020.284000", "144020.286000", "144020.289000", "144020.292000", "144020.295000", "144020.298000", "144020.301000", "144020.303000", "144020.315000", "144020.318000", "144020.321000", "144021.109000"],
      "InstanceCreationTime": ["143640.283000", "143640.287000", "143640.290000", "143640.292000", "143640.301000", "143640.303000", "143640.306000", "143640.309000", "143640.312000", "143640.315000", "143640.317000", "143640.320000", "143640.323000", "143640.327000", "143640.330000", "143640.333000", "143640.363000", "143640.366000", "143640.369000", "143640.371000", "143640.380000", "143640.383000", "143640.386000", "143640.389000", "143640.392000", "143640.394000", "143640.397000", "143640.400000", "143720.277000", "143720.280000", "143720.282000", "143720.286000", "143720.288000", "143720.291000", "143720.294000", "143720.297000", "143720.299000", "143720.302000", "143720.305000", "143720.308000", "143720.310000", "143720.313000", "143720.316000", "143720.319000", "143720.322000", "143720.324000", "143720.327000", "143720.330000", "143720.333000", "143720.335000", "143720.338000", "143720.341000", "143720.344000", "143720.346000", "143720.349000", "143800.278000", "143800.281000", "143800.284000", "143800.286000", "143800.289000", "143800.292000", "143800.295000", "143800.297000", "143800.300000", "143800.303000", "143800.306000", "143800.309000", "143800.311000", "143800.314000", "143800.317000", "143800.320000", "143800.323000", "143800.326000", "143800.328000", "143800.331000", "143800.334000", "143800.337000", "143800.339000", "143800.342000", "143800.345000", "143800.348000", "143800.351000", "143840.278000", "143840.281000", "143840.284000", "143840.287000", "143840.289000", "143840.292000", "143840.295000", "143840.298000", "143840.301000", "143840.303000", "143840.306000", "143840.309000", "143840.312000", "143840.315000", "143840.318000", "143840.320000", "143840.323000", "143840.334000", "143840.337000", "143840.340000", "143840.343000", "143840.346000", "143840.349000", "143840.351000", "143840.354000", "143840.357000", "143920.278000", "143920.281000", "143920.284000", "143920.287000", "143920.289000", "143920.292000", "143920.295000", "143920.298000", "143920.300000", "143920.303000", "143920.306000", "143920.309000", "143920.311000", "143920.314000", "143920.317000", "143920.320000", "143920.323000", "143920.325000", "143920.328000", "143920.331000", "143920.334000", "143920.336000", "143920.339000", "143920.342000", "143920.345000", "143920.348000", "143920.350000", "144000.278000", "144000.281000", "144000.284000", "144000.287000", "144000.289000", "144000.292000", "144000.295000", "144000.298000", "144000.301000", "144000.304000", "144000.306000", "144000.309000", "144000.312000", "144000.315000", "144000.317000", "144000.320000", "144000.323000", "144000.326000", "144000.329000", "144000.331000", "144000.334000", "144000.337000", "144000.340000", "144000.343000", "144000.345000", "144000.348000", "144000.351000", "144020.278000", "144020.281000", "144020.284000", "144020.286000", "144020.289000", "144020.292000", "144020.295000", "144020.298000", "144020.301000", "144020.303000", "144020.315000", "144020.318000", "144020.321000", "144021.109000"],
      "InstanceNumber": [1, 2, 3, 4, 5, 6, 7, 8, 9, 10, 11, 12, 13, 14, 15, 16, 17, 18, 19, 20, 21, 22, 23, 24, 25, 26, 27, 28, 29, 30, 31, 32, 33, 34, 35, 36, 37, 38, 39, 40, 41, 42, 43, 44, 45, 46, 47, 48, 49, 50, 51, 52, 53, 54, 55, 56, 57, 58, 59, 60, 61, 62, 63, 64, 65, 66, 67, 68, 69, 70, 71, 72, 73, 74, 75, 76, 77, 78, 79, 80, 81, 82, 83, 84, 85, 86, 87, 88, 89, 90, 91, 92, 93, 94, 95, 96, 97, 98, 99, 100, 101, 102, 103, 104, 105, 106, 107, 108, 109, 110, 111, 112, 113, 114, 115, 116, 117, 118, 119, 120, 121, 122, 123, 124, 125, 126, 127, 128, 129, 130, 131, 132, 133, 134, 135, 136, 137, 138, 139, 140, 141, 142, 143, 144, 145, 146, 147, 148, 149, 150, 151, 152, 153, 154, 155, 156, 157, 158, 159, 160, 161, 162, 163, 164, 165, 166, 167, 168, 169, 170, 171, 172, 173, 174, 175, 176],
      "LargestImagePixelValue": [2857, 2828, 2810, 2792, 2812, 2808, 2774, 2776, 2783, 2785, 2797, 2798, 2757, 2785, 2793, 2789, 2795, 2775, 2786, 2795, 2788, 2786, 2790, 2784, 2787, 2780, 2783, 2790, 2780, 2797, 2761, 2766, 2776, 2787, 2779, 2790, 2798, 2786, 2791, 2792, 2791, 2790, 2795, 2804, 2803, 2804, 2791, 2779, 2784, 2779, 2782, 2788, 2796, 2787, 2799, 2791, 2777, 2785, 2764, 2788, 2786, 2782, 2769, 2781, 2814, 2787, 2775, 2781, 2770, 2773, 2773, 2777, 2780, 2790, 2781, 2767, 2780, 2772, 2789, 2779, 2785, 2775, 2790, 2785, 2768, 2778, 2803, 2786, 2769, 2773, 2784, 2780, 2788, 2774, 2768, 2772, 2768, 2778, 2783, 2792, 2785, 2771, 2782, 2787, 2767, 2779, 2783, 2764, 2774, 2767, 2766, 2764, 2761, 2768, 2765, 2757, 2766, 2774, 2768, 2767, 2764, 2763, 2763, 2766, 2760, 2771, 2778, 2767, 2775, 2785, 2778, 2781, 2766, 2756, 2768, 2753, 2758, 2774, 2784, 2779, 2781, 2777, 2763, 2772, 2785, 2785, 2772, 2776, 2763, 2769, 2766, 2766, 2768, 2761, 2774, 2767, 2762, 2783, 2777, 2769, 2752, 2784, 2778, 2777, 2768, 2741, 2774, 2764, 2773, 2764, 2771, 2777, 2750, 2773, 2780, 2762],
      "WindowCenter": [735.0, 733.0, 733.0, 733.0, 734.0, 734.0, 733.0, 732.0, 732.0, 732.0, 732.0, 733.0, 732.0, 733.0, 733.0, 733.0, 732.0, 732.0, 732.0, 732.0, 733.0, 732.0, 732.0, 732.0, 732.0, 731.0, 731.0, 731.0, 732.0, 731.0, 732.0, 732.0, 732.0, 731.0, 731.0, 731.0, 731.0, 731.0, 731.0, 731.0, 731.0, 731.0, 731.0, 731.0, 731.0, 732.0, 732.0, 732.0, 731.0, 731.0, 731.0, 731.0, 731.0, 732.0, 732.0, 733.0, 733.0, 732.0, 731.0, 731.0, 732.0, 732.0, 732.0, 733.0, 734.0, 732.0, 731.0, 731.0, 730.0, 730.0, 729.0, 729.0, 730.0, 731.0, 731.0, 731.0, 731.0, 731.0, 731.0, 730.0, 730.0, 730.0, 730.0, 730.0, 730.0, 730.0, 730.0, 730.0, 730.0, 730.0, 730.0, 731.0, 732.0, 732.0, 731.0, 731.0, 731.0, 730.0, 730.0, 731.0, 730.0, 730.0, 730.0, 730.0, 731.0, 732.0, 732.0, 732.0, 731.0, 730.0, 731.0, 731.0, 730.0, 730.0, 731.0, 732.0, 732.0, 731.0, 731.0, 730.0, 730.0, 730.0, 730.0, 730.0, 730.0, 730.0, 731.0, 730.0, 731.0, 730.0, 730.0, 730.0, 730.0, 729.0, 730.0, 730.0, 730.0, 730.0, 731.0, 731.0, 730.0, 729.0, 729.0, 730.0, 731.0, 731.0, 731.0, 731.0, 730.0, 729.0, 729.0, 730.0, 730.0, 729.0, 729.0, 728.0, 729.0, 731.0, 731.0, 731.0, 730.0, 731.0, 732.0, 732.0, 731.0, 730.0, 729.0, 729.0, 731.0, 732.0, 732.0, 731.0, 730.0, 730.0, 730.0, 731.0],
      "WindowWidth": [1604.0, 1598.0, 1596.0, 1597.0, 1599.0, 1599.0, 1597.0, 1595.0, 1594.0, 1593.0, 1595.0, 1596.0, 1595.0, 1596.0, 1596.0, 1596.0, 1595.0, 1594.0, 1593.0, 1595.0, 1596.0, 1595.0, 1595.0, 1595.0, 1594.0, 1593.0, 1592.0, 1593.0, 1594.0, 1593.0, 1594.0, 1594.0, 1593.0, 1592.0, 1592.0, 1592.0, 1592.0, 1591.0, 1592.0, 1591.0, 1591.0, 1591.0, 1591.0, 1591.0, 1591.0, 1593.0, 1595.0, 1594.0, 1592.0, 1591.0, 1591.0, 1592.0, 1593.0, 1593.0, 1595.0, 1597.0, 1596.0, 1593.0, 1591.0, 1592.0, 1593.0, 1594.0, 1593.0, 1596.0, 1598.0, 1594.0, 1592.0, 1590.0, 1589.0, 1588.0, 1587.0, 1588.0, 1590.0, 1591.0, 1591.0, 1590.0, 1592.0, 1591.0, 1590.0, 1589.0, 1589.0, 1588.0, 1589.0, 1588.0, 1588.0, 1589.0, 1589.0, 1589.0, 1589.0, 1589.0, 1589.0, 1591.0, 1593.0, 1594.0, 1592.0, 1592.0, 1590.0, 1588.0, 1588.0, 1590.0, 1589.0, 1588.0, 1589.0, 1590.0, 1591.0, 1594.0, 1595.0, 1593.0, 1590.0, 1590.0, 1591.0, 1591.0, 1589.0, 1590.0, 1592.0, 1595.0, 1594.0, 1592.0, 1590.0, 1589.0, 1589.0, 1589.0, 1589.0, 1589.0, 1589.0, 1589.0, 1590.0, 1589.0, 1590.0, 1589.0, 1590.0, 1590.0, 1588.0, 1587.0, 1588.0, 1589.0, 1589.0, 1589.0, 1591.0, 1591.0, 1589.0, 1587.0, 1586.0, 1588.0, 1591.0, 1592.0, 1592.0, 1591.0, 1588.0, 1586.0, 1586.0, 1588.0, 1588.0, 1587.0, 1586.0, 1585.0, 1587.0, 1591.0, 1592.0, 1591.0, 1590.0, 1591.0, 1593.0, 1594.0, 1591.0, 1588.0, 1587.0, 1587.0, 1591.0, 1593.0, 1592.0, 1591.0, 1589.0, 1589.0, 1588.0, 1590.0]
    },
    "slices": {}
  }
}