{
  "AcquisitionMatrixPE": 74,
  "AcquisitionNumber": 1,
  "AcquisitionTime": "16:25:29.842500",
  "BandwidthPerPixelPhaseEncode": 25.497,
  "BaseResolution": 74,
  "BodyPartExamined": "BRAIN",
  "CoilCombinationMethod": "Sum of Squares",
  "ConsistencyInfo": "N4_VE11C_LATEST_20160120",
  "ConversionSoftware": "dcm2niix",
  "ConversionSoftwareVersion": "v1.0.20220720",
  "DerivedVendorReportedEchoSpacing": 0.000530004,
  "DeviceSerialNumber": "45031",
  "DwellTime": 3e-06,
  "EchoTime": 0.028,
  "EchoTrainLength": 74,
  "EffectiveEchoSpacing": 0.000530004,
  "FlipAngle": 80,
  "HeudiconvVersion": "0.12.2",
  "ImageOrientationPatientDICOM": [0.99937, 0.0221305, -0.0277485, -0.0294861, 0.952846, -0.302019],
  "ImageOrientationText": "Tra>Cor(-17.6)>Sag(-1.1)",
  "ImageType": [
    "ORIGINAL",
    "PRIMARY",
    "M",
    "ND",
    "MOSAIC"
],
  "ImagingFrequency": 123.25,
  "InPlanePhaseEncodingDirectionDICOM": "COL",
  "InstitutionAddress": "Washington and Faculty Rd. - Building 25 25,Princeton,NJ,US,08540",
  "InstitutionName": "Princeton University - Neuroscience Institute",
  "InstitutionalDepartmentName": "Department",
  "MRAcquisitionType": "2D",
  "MagneticFieldStrength": 3,
  "Manufacturer": "Siemens",
  "ManufacturersModelName": "Skyra",
  "Modality": "MR",
  "MultibandAccelerationFactor": 2,
  "NonlinearGradientCorrection": false,
  "PartialFourier": 1,
  "PatientPosition": "HFS",
  "PercentPhaseFOV": 100,
  "PercentSampling": 100,
  "PhaseEncodingDirection": "j-",
  "PhaseEncodingSteps": 74,
  "PhaseResolution": 1,
  "PixelBandwidth": 2250,
  "ProcedureStepDescription": "NormaL_Robert^Tangrams",
  "ProtocolName": "func_task-PostExposure_run-01",
  "PulseSequenceDetails": "%SiemensSeq%\\ep2d_bold",
  "ReceiveCoilActiveElements": "HC1-7",
  "ReceiveCoilName": "HeadNeck_64",
  "ReconMatrixPE": 74,
  "RefLinesPE": 12,
  "RepetitionTime": 1.5,
  "SAR": 0.0981257,
  "ScanOptions": "FS",
  "ScanningSequence": "EP",
  "SequenceName": "*epfid2d1_74",
  "SequenceVariant": "SK",
  "SeriesDescription": "func_task-PostExposure_run-01",
  "SeriesNumber": 20,
  "ShimSetting": [3369, 8836, 9283, 486, 80, -201, 32, 335],
  "SliceThickness": 3,
  "SliceTiming": [0.7075, 0, 0.7725, 0.065, 0.835, 0.1275, 0.9, 0.1925, 0.965, 0.2575, 1.03, 0.3225, 1.0925, 0.385, 1.1575, 0.45, 1.2225, 0.515, 1.2875, 0.58, 1.35, 0.6425, 1.415, 0.7075, 0, 0.7725, 0.065, 0.835, 0.1275, 0.9, 0.1925, 0.965, 0.2575, 1.03, 0.3225, 1.0925, 0.385, 1.1575, 0.45, 1.2225, 0.515, 1.2875, 0.58, 1.35, 0.6425, 1.415],
  "SoftwareVersions": "syngo MR E11",
  "SpacingBetweenSlices": 3,
  "StationName": "AWP45031",
  "TaskName": "PostExposure",
  "TotalReadoutTime": 0.0386903,
  "TxRefAmp": 343.369,
  "dcmmeta_affine": [
    [-2.998109817504883, -0.08845818787813187, -0.05926872789859772, 112.14165496826172],
    [-0.06639135628938675, 2.858537435531616, -0.9079402089118958, -99.39519500732422],
    [-0.08324554562568665, 0.9060565233230591, 2.858694076538086, -90.47087097167969],
    [0.0, 0.0, 0.0, 1.0]
],
  "dcmmeta_reorient_transform": [
    [0.0, -1.0, 0.0, 73.0],
    [1.0, 0.0, 0.0, 0.0],
    [0.0, 0.0, 1.0, 0.0],
    [0.0, 0.0, 0.0, 1.0]
],
  "dcmmeta_shape": [74, 74, 46, 174],
  "dcmmeta_slice_dim": 2,
  "dcmmeta_version": 0.6,
  "global": {
    "const": {
      "AcquisitionMatrix": [74, 0, 0, 74],
      "AngioFlag": "N",
      "BitsAllocated": 16,
      "BitsStored": 12,
      "BodyPartExamined": "BRAIN",
      "Columns": 518,
      "EchoNumbers": 1,
      "EchoTime": 28.0,
      "EchoTrainLength": 74,
      "FlipAngle": 80.0,
      "HighBit": 11,
      "ImageOrientationPatient": [0.9993699330144, 0.02213045261841, -0.0277485144413, -0.0294860620679, 0.9528458380924, -0.3020188420839],
      "ImagePositionPatient": [-751.62686411614, -758.61225493862, 195.29631747154],
      "ImageType": [
        "ORIGINAL",
        "PRIMARY",
        "M",
        "ND",
        "MOSAIC"
],
      "ImagedNucleus": "1H",
      "ImagingFrequency": 123.250099,
      "InPlanePhaseEncodingDirection": "COL",
      "MRAcquisitionType": "2D",
      "MagneticFieldStrength": 3.0,
      "Manufacturer": "SIEMENS",
      "ManufacturerModelName": "Skyra",
      "Modality": "MR",
      "NumberOfAverages": 1.0,
      "NumberOfPhaseEncodingSteps": 74,
      "PercentPhaseFieldOfView": 100.0,
      "PercentSampling": 100.0,
      "PerformedProcedureStepStartTime": "134742.073000",
      "PhotometricInterpretation": "MONOCHROME2",
      "PixelBandwidth": 2250.0,
      "PixelRepresentation": 0,
      "PixelSpacing": [3.0, 3.0],
      "ProtocolName": "func_task-PostExposure_run-01",
      "RepetitionTime": 1500.0,
      "Rows": 518,
      "SAR": 0.0981257514091,
      "SamplesPerPixel": 1,
      "ScanOptions": "FS",
      "ScanningSequence": "EP",
      "SequenceName": "*epfid2d1_74",
      "SequenceVariant": "SK",
      "SeriesDescription": "func_task-PostExposure_run-01",
      "SeriesNumber": 20,
      "SeriesTime": "162531.913000",
      "SliceLocation": -58.343377577644,
      "SliceThickness": 3.0,
      "SmallestImagePixelValue": 0,
      "SoftwareVersions": "syngo MR E11",
      "SpacingBetweenSlices": 2.9999999613841,
      "SpecificCharacterSet": "ISO_IR 100",
      "StudyID": "1",
      "StudyTime": "134742.003000",
      "TransmitCoilName": "Body",
      "VariableFlipAngleFlag": "N",
      "WindowCenterWidthExplanation": "Algo1",
      "dBdt": 0.0},
    "slices": {}
  },
  "time": {
    "samples": {
      "AcquisitionNumber": [1, 2, 3, 4, 5, 6, 7, 8, 9, 10, 11, 12, 13, 14, 15, 16, 17, 18, 19, 20, 21, 22, 23, 24, 25, 26, 27, 28, 29, 30, 31, 32, 33, 34, 35, 36, 37, 38, 39, 40, 41, 42, 43, 44, 45, 46, 47, 48, 49, 50, 51, 52, 53, 54, 55, 56, 57, 58, 59, 60, 61, 62, 63, 64, 65, 66, 67, 68, 69, 70, 71, 72, 73, 74, 75, 76, 77, 78, 79, 80, 81, 82, 83, 84, 85, 86, 87, 88, 89, 90, 91, 92, 93, 94, 95, 96, 97, 98, 99, 100, 101, 102, 103, 104, 105, 106, 107, 108, 109, 110, 111, 112, 113, 114, 115, 116, 117, 118, 119, 120, 121, 122, 123, 124, 125, 126, 127, 128, 129, 130, 131, 132, 133, 134, 135, 136, 137, 138, 139, 140, 141, 142, 143, 144, 145, 146, 147, 148, 149, 150, 151, 152, 153, 154, 155, 156, 157, 158, 159, 160, 161, 162, 163, 164, 165, 166, 167, 168, 169, 170, 171, 172, 173, 174],
      "AcquisitionTime": ["162529.842500", "162531.342500", "162532.842500", "162534.342500", "162535.842500", "162537.342500", "162538.842500", "162540.342500", "162541.842500", "162543.342500", "162544.842500", "162546.342500", "162547.842500", "162549.342500", "162550.842500", "162552.342500", "162553.842500", "162555.342500", "162556.842500", "162558.342500", "162559.842500", "162601.342500", "162602.842500", "162604.342500", "162605.842500", "162607.342500", "162608.842500", "162610.342500", "162611.842500", "162613.342500", "162614.842500", "162616.342500", "162617.842500", "162619.342500", "162620.842500", "162622.342500", "162623.842500", "162625.342500", "162626.842500", "162628.342500", "162629.842500", "162631.342500", "162632.842500", "162634.342500", "162635.842500", "162637.342500", "162638.842500", "162640.342500", "162641.842500", "162643.342500", "162644.842500", "162646.342500", "162647.842500", "162649.342500", "162650.842500", "162652.342500", "162653.842500", "162655.342500", "162656.842500", "162658.342500", "162659.842500", "162701.342500", "162702.842500", "162704.342500", "162705.842500", "162707.342500", "162708.842500", "162710.342500", "162711.842500", "162713.342500", "162714.842500", "162716.342500", "162717.842500", "162719.342500", "162720.842500", "162722.342500", "162723.842500", "162725.342500", "162726.842500", "162728.342500", "162729.842500", "162731.342500", "162732.842500", "162734.342500", "162735.842500", "162737.342500", "162738.842500", "162740.342500", "162741.842500", "162743.342500", "162744.842500", "162746.342500", "162747.842500", "162749.342500", "162750.842500", "162752.342500", "162753.842500", "162755.342500", "162756.842500", "162758.342500", "162759.842500", "162801.342500", "162802.842500", "162804.342500", "162805.842500", "162807.342500", "162808.842500", "162810.342500", "162811.842500", "162813.342500", "162814.842500", "162816.342500", "162817.842500", "162819.342500", "162820.842500", "162822.342500", "162823.842500", "162825.342500", "162826.842500", "162828.342500", "162829.842500", "162831.342500", "162832.842500", "162834.342500", "162835.842500", "162837.342500", "162838.842500", "162840.342500", "162841.842500", "162843.342500", "162844.842500", "162846.342500", "162847.842500", "162849.342500", "162850.842500", "162852.342500", "162853.842500", "162855.342500", "162856.842500", "162858.342500", "162859.842500", "162901.342500", "162902.842500", "162904.342500", "162905.842500", "162907.342500", "162908.842500", "162910.342500", "162911.842500", "162913.342500", "162914.842500", "162916.342500", "162917.842500", "162919.342500", "162920.842500", "162922.342500", "162923.842500", "162925.342500", "162926.842500", "162928.342500", "162929.842500", "162931.342500", "162932.842500", "162934.342500", "162935.842500", "162937.342500", "162938.842500", "162940.342500", "162941.842500", "162943.342500", "162944.842500", "162946.342500", "162947.842500", "162949.342500"],
      "ContentTime": ["162531.917000", "162533.412000", "162534.912000", "162536.412000", "162537.911000", "162539.411000", "162540.911000", "162542.411000", "162543.911000", "162545.412000", "162546.912000", "162548.412000", "162549.912000", "162551.412000", "162552.912000", "162554.412000", "162555.911000", "162557.411000", "162558.911000", "162600.411000", "162601.911000", "162603.412000", "162604.912000", "162606.412000", "162607.912000", "162609.412000", "162610.912000", "162612.411000", "162613.911000", "162615.411000", "162616.911000", "162618.411000", "162619.911000", "162621.412000", "162622.912000", "162624.412000", "162625.912000", "162627.412000", "162628.912000", "162630.411000", "162631.911000", "162633.411000", "162634.911000", "162636.411000", "162637.912000", "162639.412000", "162640.912000", "162642.412000", "162643.912000", "162645.411000", "162646.912000", "162648.411000", "162649.911000", "162651.411000", "162652.911000", "162654.411000", "162655.912000", "162657.412000", "162658.912000", "162700.412000", "162701.912000", "162703.412000", "162704.911000", "162706.411000", "162707.911000", "162709.411000", "162710.911000", "162712.411000", "162713.912000", "162715.412000", "162716.912000", "162718.412000", "162719.912000", "162721.412000", "162722.911000", "162724.411000", "162725.911000", "162727.411000", "162728.911000", "162730.412000", "162731.912000", "162733.412000", "162734.912000", "162736.412000", "162737.912000", "162739.412000", "162740.911000", "162742.411000", "162743.911000", "162745.411000", "162746.911000", "162748.412000", "162749.912000", "162751.412000", "162752.912000", "162754.412000", "162755.912000", "162757.411000", "162758.911000", "162800.411000", "162801.911000", "162803.411000", "162804.911000", "162806.412000", "162807.912000", "162809.412000", "162810.912000", "162812.412000", "162813.912000", "162815.411000", "162816.911000", "162818.411000", "162819.911000", "162821.411000", "162822.912000", "162824.412000", "162825.912000", "162827.412000", "162828.912000", "162830.412000", "162831.912000", "162833.411000", "162834.919000", "162836.411000", "162837.911000", "162839.411000", "162840.912000", "162842.412000", "162843.912000", "162845.412000", "162846.912000", "162848.412000", "162849.911000", "162851.411000", "162852.911000", "162854.411000", "162855.911000", "162857.411000", "162858.912000", "162900.412000", "162901.912000", "162903.412000", "162904.912000", "162906.412000", "162907.911000", "162909.411000", "162910.911000", "162912.411000", "162913.911000", "162915.412000", "162916.912000", "162918.412000", "162919.912000", "162921.412000", "162922.912000", "162924.412000", "162925.911000", "162927.411000", "162928.911000", "162930.411000", "162931.911000", "162933.412000", "162934.912000", "162936.412000", "162937.912000", "162939.412000", "162940.912000", "162942.411000", "162943.911000", "162945.411000", "162946.911000", "162948.411000", "162949.911000", "162951.405000"],
      "InstanceCreationTime": ["162531.917000", "162533.412000", "162534.912000", "162536.412000", "162537.911000", "162539.411000", "162540.911000", "162542.411000", "162543.911000", "162545.412000", "162546.912000", "162548.412000", "162549.912000", "162551.412000", "162552.912000", "162554.412000", "162555.911000", "162557.411000", "162558.911000", "162600.411000", "162601.911000", "162603.412000", "162604.912000", "162606.412000", "162607.912000", "162609.412000", "162610.912000", "162612.411000", "162613.911000", "162615.411000", "162616.911000", "162618.411000", "162619.911000", "162621.412000", "162622.912000", "162624.412000", "162625.912000", "162627.412000", "162628.912000", "162630.411000", "162631.911000", "162633.411000", "162634.911000", "162636.411000", "162637.912000", "162639.412000", "162640.912000", "162642.412000", "162643.912000", "162645.411000", "162646.912000", "162648.411000", "162649.911000", "162651.411000", "162652.911000", "162654.411000", "162655.912000", "162657.412000", "162658.912000", "162700.412000", "162701.912000", "162703.412000", "162704.911000", "162706.411000", "162707.911000", "162709.411000", "162710.911000", "162712.411000", "162713.912000", "162715.412000", "162716.912000", "162718.412000", "162719.912000", "162721.412000", "162722.911000", "162724.411000", "162725.911000", "162727.411000", "162728.911000", "162730.412000", "162731.912000", "162733.412000", "162734.912000", "162736.412000", "162737.912000", "162739.412000", "162740.911000", "162742.411000", "162743.911000", "162745.411000", "162746.911000", "162748.412000", "162749.912000", "162751.412000", "162752.912000", "162754.412000", "162755.912000", "162757.411000", "162758.911000", "162800.411000", "162801.911000", "162803.411000", "162804.911000", "162806.412000", "162807.912000", "162809.412000", "162810.912000", "162812.412000", "162813.912000", "162815.411000", "162816.911000", "162818.411000", "162819.911000", "162821.411000", "162822.912000", "162824.412000", "162825.912000", "162827.412000", "162828.912000", "162830.412000", "162831.912000", "162833.411000", "162834.919000", "162836.411000", "162837.911000", "162839.411000", "162840.912000", "162842.412000", "162843.912000", "162845.412000", "162846.912000", "162848.412000", "162849.911000", "162851.411000", "162852.911000", "162854.411000", "162855.911000", "162857.411000", "162858.912000", "162900.412000", "162901.912000", "162903.412000", "162904.912000", "162906.412000", "162907.911000", "162909.411000", "162910.911000", "162912.411000", "162913.911000", "162915.412000", "162916.912000", "162918.412000", "162919.912000", "162921.412000", "162922.912000", "162924.412000", "162925.911000", "162927.411000", "162928.911000", "162930.411000", "162931.911000", "162933.412000", "162934.912000", "162936.412000", "162937.912000", "162939.412000", "162940.912000", "162942.411000", "162943.911000", "162945.411000", "162946.911000", "162948.411000", "162949.911000", "162951.405000"],
      "InstanceNumber": [1, 2, 3, 4, 5, 6, 7, 8, 9, 10, 11, 12, 13, 14, 15, 16, 17, 18, 19, 20, 21, 22, 23, 24, 25, 26, 27, 28, 29, 30, 31, 32, 33, 34, 35, 36, 37, 38, 39, 40, 41, 42, 43, 44, 45, 46, 47, 48, 49, 50, 51, 52, 53, 54, 55, 56, 57, 58, 59, 60, 61, 62, 63, 64, 65, 66, 67, 68, 69, 70, 71, 72, 73, 74, 75, 76, 77, 78, 79, 80, 81, 82, 83, 84, 85, 86, 87, 88, 89, 90, 91, 92, 93, 94, 95, 96, 97, 98, 99, 100, 101, 102, 103, 104, 105, 106, 107, 108, 109, 110, 111, 112, 113, 114, 115, 116, 117, 118, 119, 120, 121, 122, 123, 124, 125, 126, 127, 128, 129, 130, 131, 132, 133, 134, 135, 136, 137, 138, 139, 140, 141, 142, 143, 144, 145, 146, 147, 148, 149, 150, 151, 152, 153, 154, 155, 156, 157, 158, 159, 160, 161, 162, 163, 164, 165, 166, 167, 168, 169, 170, 171, 172, 173, 174],
      "LargestImagePixelValue": [2715, 2687, 2680, 2617, 2654, 2661, 2677, 2684, 2715, 2718, 2696, 2681, 2697, 2728, 2717, 2725, 2705, 2745, 2715, 2714, 2726, 2740, 2740, 2723, 2730, 2741, 2739, 2748, 2729, 2747, 2733, 2739, 2728, 2748, 2715, 2732, 2728, 2739, 2730, 2751, 2735, 2743, 2730, 2730, 2721, 2720, 2742, 2735, 2738, 2752, 2751, 2771, 2748, 2748, 2755, 2756, 2761, 2697, 2764, 2751, 2752, 2755, 2748, 2755, 2749, 2766, 2749, 2747, 2748, 2765, 2748, 2758, 2756, 2754, 2709, 2742, 2722, 2727, 2710, 2699, 2717, 2717, 2727, 2701, 2706, 2711, 2708, 2739, 2738, 2711, 2754, 2755, 2731, 2733, 2741, 2726, 2742, 2726, 2756, 2744, 2737, 2737, 2728, 2730, 2726, 2740, 2746, 2747, 2736, 2726, 2728, 2735, 2741, 2738, 2721, 2709, 2704, 2719, 2730, 2731, 2727, 2720, 2706, 2717, 2715, 2697, 2697, 2731, 2707, 2648, 2660, 2600, 2718, 2685, 2717, 2685, 2683, 2689, 2659, 2710, 2648, 2638, 2653, 2669, 2703, 2720, 2686, 2685, 2668, 2676, 2672, 2679, 2683, 2700, 2669, 2670, 2685, 2678, 2684, 2676, 2677, 2686, 2677, 2688, 2682, 2688, 2660, 2676, 2651, 2604, 2653, 2643, 2670, 2625],
      "WindowCenter": [714.0, 712.0, 711.0, 711.0, 712.0, 713.0, 713.0, 713.0, 714.0, 714.0, 714.0, 713.0, 713.0, 714.0, 714.0, 714.0, 714.0, 714.0, 714.0, 714.0, 714.0, 715.0, 715.0, 715.0, 715.0, 714.0, 714.0, 715.0, 715.0, 716.0, 715.0, 715.0, 713.0, 713.0, 713.0, 714.0, 715.0, 715.0, 714.0, 714.0, 713.0, 714.0, 716.0, 716.0, 715.0, 714.0, 714.0, 714.0, 713.0, 714.0, 714.0, 715.0, 714.0, 714.0, 713.0, 714.0, 714.0, 713.0, 713.0, 714.0, 714.0, 714.0, 714.0, 715.0, 714.0, 715.0, 715.0, 714.0, 714.0, 715.0, 715.0, 716.0, 716.0, 714.0, 714.0, 715.0, 717.0, 717.0, 715.0, 714.0, 714.0, 714.0, 716.0, 717.0, 718.0, 717.0, 716.0, 717.0, 717.0, 717.0, 717.0, 716.0, 715.0, 715.0, 716.0, 716.0, 717.0, 716.0, 716.0, 715.0, 715.0, 716.0, 716.0, 716.0, 715.0, 714.0, 715.0, 715.0, 716.0, 715.0, 715.0, 714.0, 715.0, 715.0, 715.0, 716.0, 716.0, 715.0, 715.0, 714.0, 715.0, 716.0, 716.0, 716.0, 716.0, 716.0, 716.0, 716.0, 716.0, 715.0, 715.0, 714.0, 716.0, 716.0, 716.0, 714.0, 714.0, 713.0, 715.0, 716.0, 716.0, 716.0, 715.0, 715.0, 715.0, 715.0, 715.0, 715.0, 714.0, 714.0, 714.0, 714.0, 715.0, 716.0, 716.0, 716.0, 716.0, 716.0, 716.0, 716.0, 717.0, 717.0, 717.0, 717.0, 717.0, 717.0, 717.0, 716.0, 716.0, 716.0, 717.0, 716.0, 716.0, 715.0],
      "WindowWidth": [1542.0, 1538.0, 1536.0, 1535.0, 1538.0, 1539.0, 1540.0, 1540.0, 1542.0, 1543.0, 1542.0, 1540.0, 1541.0, 1542.0, 1543.0, 1543.0, 1542.0, 1542.0, 1542.0, 1543.0, 1542.0, 1544.0, 1545.0, 1546.0, 1544.0, 1543.0, 1543.0, 1544.0, 1545.0, 1547.0, 1546.0, 1544.0, 1541.0, 1540.0, 1540.0, 1543.0, 1545.0, 1546.0, 1544.0, 1543.0, 1540.0, 1542.0, 1546.0, 1547.0, 1545.0, 1542.0, 1542.0, 1542.0, 1541.0, 1541.0, 1542.0, 1544.0, 1542.0, 1541.0, 1541.0, 1543.0, 1542.0, 1540.0, 1541.0, 1541.0, 1543.0, 1543.0, 1542.0, 1544.0, 1543.0, 1545.0, 1544.0, 1543.0, 1543.0, 1544.0, 1546.0, 1547.0, 1547.0, 1542.0, 1542.0, 1545.0, 1549.0, 1549.0, 1546.0, 1543.0, 1542.0, 1542.0, 1547.0, 1550.0, 1552.0, 1549.0, 1548.0, 1549.0, 1549.0, 1549.0, 1549.0, 1548.0, 1546.0, 1545.0, 1547.0, 1549.0, 1550.0, 1548.0, 1547.0, 1545.0, 1545.0, 1547.0, 1548.0, 1546.0, 1544.0, 1543.0, 1544.0, 1545.0, 1547.0, 1546.0, 1545.0, 1543.0, 1544.0, 1545.0, 1546.0, 1546.0, 1546.0, 1545.0, 1543.0, 1543.0, 1545.0, 1547.0, 1548.0, 1547.0, 1546.0, 1546.0, 1546.0, 1547.0, 1546.0, 1544.0, 1544.0, 1543.0, 1546.0, 1546.0, 1547.0, 1543.0, 1541.0, 1539.0, 1544.0, 1547.0, 1547.0, 1547.0, 1546.0, 1544.0, 1545.0, 1545.0, 1544.0, 1544.0, 1542.0, 1543.0, 1542.0, 1543.0, 1545.0, 1546.0, 1547.0, 1548.0, 1548.0, 1547.0, 1548.0, 1548.0, 1548.0, 1549.0, 1549.0, 1549.0, 1550.0, 1550.0, 1549.0, 1547.0, 1547.0, 1548.0, 1551.0, 1548.0, 1548.0, 1544.0]
    },
    "slices": {}
  }
}