{
  "AcquisitionMatrixPE": 74,
  "AcquisitionNumber": 1,
  "AcquisitionTime": "15:20:25.807500",
  "BandwidthPerPixelPhaseEncode": 25.497,
  "BaseResolution": 74,
  "BodyPartExamined": "BRAIN",
  "ConsistencyInfo": "N4_VE11C_LATEST_20160120",
  "ConversionSoftware": "dcm2niix",
  "ConversionSoftwareVersion": "v1.0.20190410  GCC6.3.0",
  "DerivedVendorReportedEchoSpacing": 0.000530004,
  "DeviceSerialNumber": "45031",
  "DwellTime": 3e-06,
  "EchoTime": 0.028,
  "EchoTrainLength": 74,
  "EffectiveEchoSpacing": 0.000530004,
  "FlipAngle": 80,
  "ImageOrientationPatientDICOM": [0.9993, 0.0351766, -0.0126972, -0.0361188, 0.995831, -0.0837631],
  "ImageType": [
    "ORIGINAL",
    "PRIMARY",
    "M",
    "ND",
    "MOSAIC"
],
  "ImagingFrequency": 123.25,
  "InPlanePhaseEncodingDirectionDICOM": "COL",
  "InstitutionAddress": "Washington_and_Faculty_Rd._-_Building_25_25_Princeton_NJ_US_08540",
  "InstitutionName": "Princeton_University_-_Neuroscience_Institute",
  "InstitutionalDepartmentName": "Department",
  "MRAcquisitionType": "2D",
  "MagneticFieldStrength": 3,
  "Manufacturer": "Siemens",
  "ManufacturersModelName": "Skyra",
  "Modality": "MR",
  "MultibandAccelerationFactor": 2,
  "PartialFourier": 1,
  "PatientPosition": "HFS",
  "PercentPhaseFOV": 100,
  "PhaseEncodingDirection": "j-",
  "PhaseEncodingSteps": 74,
  "PhaseResolution": 1,
  "PixelBandwidth": 2250,
  "ProcedureStepDescription": "NormaL_Robert_Tangrams",
  "ProtocolName": "func_task-Repeated_run-04",
  "PulseSequenceDetails": "%SiemensSeq%_ep2d_bold",
  "ReceiveCoilActiveElements": "HC1-7",
  "ReceiveCoilName": "HeadNeck_64",
  "ReconMatrixPE": 74,
  "RefLinesPE": 12,
  "RepetitionTime": 1.5,
  "SAR": 0.0879428,
  "ScanOptions": "FS",
  "ScanningSequence": "EP",
  "SequenceName": "_epfid2d1_74",
  "SequenceVariant": "SK",
  "SeriesDescription": "func_task-Repeated_run-04",
  "SeriesNumber": 11,
  "ShimSetting": [3373, 8748, 9246, 405, 57, -636, 310, 233],
  "SliceThickness": 3,
  "SliceTiming": [0.71, 0, 0.7725, 0.065, 0.8375, 0.13, 0.9025, 0.195, 0.965, 0.2575, 1.03, 0.3225, 1.095, 0.3875, 1.16, 0.4525, 1.2225, 0.515, 1.2875, 0.58, 1.3525, 0.645, 1.4175, 0.71, 0, 0.7725, 0.065, 0.8375, 0.13, 0.9025, 0.195, 0.965, 0.2575, 1.03, 0.3225, 1.095, 0.3875, 1.16, 0.4525, 1.2225, 0.515, 1.2875, 0.58, 1.3525, 0.645, 1.4175],
  "SoftwareVersions": "syngo_MR_E11",
  "SpacingBetweenSlices": 3,
  "StationName": "AWP45031",
  "TaskName": "Repeated",
  "TotalReadoutTime": 0.0386903,
  "TxRefAmp": 323.535,
  "dcmmeta_affine": [
    [-2.997901439666748, -0.10835637152194977, -0.02909316122531891, 113.60340118408203],
    [-0.10552988201379776, 2.987492799758911, -0.25248920917510986, -120.78832244873047],
    [-0.038091473281383514, 0.25128915905952454, 2.9892144203186035, -73.77299499511719],
    [0.0, 0.0, 0.0, 1.0]
],
  "dcmmeta_reorient_transform": [
    [0.0, -1.0, 0.0, 73.0],
    [1.0, 0.0, 0.0, 0.0],
    [0.0, 0.0, 1.0, 0.0],
    [0.0, 0.0, 0.0, 1.0]
],
  "dcmmeta_shape": [74, 74, 46, 174],
  "dcmmeta_slice_dim": 2,
  "dcmmeta_version": 0.6,
  "global": {
    "const": {
      "AcquisitionMatrix": [74, 0, 0, 74],
      "AngioFlag": "N",
      "BitsAllocated": 16,
      "BitsStored": 12,
      "BodyPartExamined": "BRAIN",
      "Columns": 518,
      "EchoNumbers": 1,
      "EchoTime": 28.0,
      "EchoTrainLength": 74,
      "FlipAngle": 80.0,
      "HighBit": 11,
      "ImageOrientationPatient": [0.99930044887688, 0.03517662656245, -0.0126971578767, -0.0361187914218, 0.99583090088876, -0.0837630571393],
      "ImagePositionPatient": [-747.17236632465, -783.94965844568, 8.8136159980836],
      "ImageType": [
        "ORIGINAL",
        "PRIMARY",
        "M",
        "ND",
        "MOSAIC"
],
      "ImagedNucleus": "1H",
      "ImagingFrequency": 123.250216,
      "InPlanePhaseEncodingDirection": "COL",
      "MRAcquisitionType": "2D",
      "MagneticFieldStrength": 3.0,
      "Manufacturer": "SIEMENS",
      "ManufacturerModelName": "Skyra",
      "Modality": "MR",
      "NumberOfAverages": 1.0,
      "NumberOfPhaseEncodingSteps": 74,
      "PercentPhaseFieldOfView": 100.0,
      "PercentSampling": 100.0,
      "PerformedProcedureStepStartTime": "141411.814000",
      "PhotometricInterpretation": "MONOCHROME2",
      "PixelBandwidth": 2250.0,
      "PixelRepresentation": 0,
      "PixelSpacing": [3.0, 3.0],
      "ProtocolName": "func_task-Repeated_run-04",
      "RepetitionTime": 1500.0,
      "Rows": 518,
      "SAR": 0.08794282509794,
      "SamplesPerPixel": 1,
      "ScanOptions": "FS",
      "ScanningSequence": "EP",
      "SequenceName": "*epfid2d1_74",
      "SequenceVariant": "SK",
      "SeriesDescription": "func_task-Repeated_run-04",
      "SeriesNumber": 11,
      "SeriesTime": "152059.103000",
      "SliceLocation": -64.443546683676,
      "SliceThickness": 3.0,
      "SmallestImagePixelValue": 0,
      "SoftwareVersions": "syngo MR E11",
      "SpacingBetweenSlices": 3.0000000006903,
      "SpecificCharacterSet": "ISO_IR 100",
      "StudyID": "1",
      "StudyTime": "141411.752000",
      "TransmitCoilName": "Body",
      "VariableFlipAngleFlag": "N",
      "WindowCenterWidthExplanation": "Algo1",
      "dBdt": 0.0},
    "slices": {}
  },
  "time": {
    "samples": {
      "AcquisitionNumber": [1, 2, 3, 4, 5, 6, 7, 8, 9, 10, 11, 12, 13, 14, 15, 16, 17, 18, 19, 20, 21, 22, 23, 24, 25, 26, 27, 28, 29, 30, 31, 32, 33, 34, 35, 36, 37, 38, 39, 40, 41, 42, 43, 44, 45, 46, 47, 48, 49, 50, 51, 52, 53, 54, 55, 56, 57, 58, 59, 60, 61, 62, 63, 64, 65, 66, 67, 68, 69, 70, 71, 72, 73, 74, 75, 76, 77, 78, 79, 80, 81, 82, 83, 84, 85, 86, 87, 88, 89, 90, 91, 92, 93, 94, 95, 96, 97, 98, 99, 100, 101, 102, 103, 104, 105, 106, 107, 108, 109, 110, 111, 112, 113, 114, 115, 116, 117, 118, 119, 120, 121, 122, 123, 124, 125, 126, 127, 128, 129, 130, 131, 132, 133, 134, 135, 136, 137, 138, 139, 140, 141, 142, 143, 144, 145, 146, 147, 148, 149, 150, 151, 152, 153, 154, 155, 156, 157, 158, 159, 160, 161, 162, 163, 164, 165, 166, 167, 168, 169, 170, 171, 172, 173, 174],
      "AcquisitionTime": ["152025.807500", "152027.307500", "152028.807500", "152030.307500", "152031.807500", "152033.307500", "152034.807500", "152036.307500", "152037.807500", "152039.307500", "152040.807500", "152042.307500", "152043.807500", "152045.307500", "152046.807500", "152048.307500", "152049.807500", "152051.307500", "152052.807500", "152054.307500", "152055.807500", "152057.307500", "152058.807500", "152100.307500", "152101.807500", "152103.307500", "152104.807500", "152106.307500", "152107.807500", "152109.307500", "152110.807500", "152112.307500", "152113.807500", "152115.307500", "152116.807500", "152118.307500", "152119.807500", "152121.307500", "152122.807500", "152124.307500", "152125.807500", "152127.307500", "152128.807500", "152130.307500", "152131.807500", "152133.307500", "152134.807500", "152136.307500", "152137.807500", "152139.307500", "152140.807500", "152142.307500", "152143.807500", "152145.307500", "152146.807500", "152148.307500", "152149.807500", "152151.307500", "152152.807500", "152154.307500", "152155.807500", "152157.307500", "152158.807500", "152200.307500", "152201.807500", "152203.307500", "152204.807500", "152206.307500", "152207.807500", "152209.307500", "152210.807500", "152212.307500", "152213.807500", "152215.307500", "152216.807500", "152218.307500", "152219.807500", "152221.307500", "152222.807500", "152224.307500", "152225.807500", "152227.307500", "152228.807500", "152230.307500", "152231.807500", "152233.307500", "152234.807500", "152236.307500", "152237.807500", "152239.307500", "152240.807500", "152242.307500", "152243.807500", "152245.307500", "152246.807500", "152248.307500", "152249.807500", "152251.307500", "152252.807500", "152254.307500", "152255.807500", "152257.307500", "152258.807500", "152300.307500", "152301.807500", "152303.307500", "152304.807500", "152306.307500", "152307.807500", "152309.307500", "152310.807500", "152312.307500", "152313.807500", "152315.307500", "152316.807500", "152318.307500", "152319.807500", "152321.307500", "152322.807500", "152324.307500", "152325.807500", "152327.307500", "152328.807500", "152330.307500", "152331.807500", "152333.307500", "152334.807500", "152336.307500", "152337.807500", "152339.307500", "152340.807500", "152342.307500", "152343.807500", "152345.307500", "152346.807500", "152348.307500", "152349.807500", "152351.307500", "152352.807500", "152354.307500", "152355.807500", "152357.307500", "152358.807500", "152400.307500", "152401.807500", "152403.307500", "152404.807500", "152406.307500", "152407.807500", "152409.307500", "152410.807500", "152412.307500", "152413.807500", "152415.307500", "152416.807500", "152418.307500", "152419.807500", "152421.307500", "152422.807500", "152424.307500", "152425.807500", "152427.307500", "152428.807500", "152430.307500", "152431.807500", "152433.307500", "152434.807500", "152436.307500", "152437.807500", "152439.307500", "152440.807500", "152442.307500", "152443.807500", "152445.307500"],
      "ContentTime": ["152059.106000", "152059.118000", "152059.124000", "152059.127000", "152059.130000", "152059.133000", "152059.136000", "152059.138000", "152059.141000", "152059.144000", "152059.147000", "152059.149000", "152059.152000", "152059.156000", "152059.159000", "152059.162000", "152059.164000", "152059.167000", "152059.170000", "152059.175000", "152059.177000", "152059.180000", "152139.102000", "152139.105000", "152139.108000", "152139.110000", "152139.113000", "152139.117000", "152139.120000", "152139.123000", "152139.127000", "152139.129000", "152139.132000", "152139.135000", "152139.138000", "152139.141000", "152139.145000", "152139.148000", "152139.151000", "152139.154000", "152139.157000", "152139.160000", "152139.163000", "152139.166000", "152139.169000", "152139.178000", "152139.181000", "152139.185000", "152219.102000", "152219.105000", "152219.108000", "152219.111000", "152219.113000", "152219.116000", "152219.119000", "152219.122000", "152219.124000", "152219.127000", "152219.130000", "152219.133000", "152219.135000", "152219.138000", "152219.149000", "152219.152000", "152219.155000", "152219.158000", "152219.160000", "152219.163000", "152219.166000", "152219.169000", "152219.171000", "152219.174000", "152219.177000", "152219.180000", "152219.182000", "152259.102000", "152259.105000", "152259.108000", "152259.110000", "152259.113000", "152259.116000", "152259.119000", "152259.121000", "152259.124000", "152259.127000", "152259.130000", "152259.133000", "152259.135000", "152259.138000", "152259.141000", "152259.144000", "152259.147000", "152259.149000", "152259.152000", "152259.155000", "152259.158000", "152259.160000", "152259.163000", "152259.166000", "152259.169000", "152259.171000", "152259.174000", "152339.102000", "152339.105000", "152339.108000", "152339.110000", "152339.113000", "152339.116000", "152339.119000", "152339.121000", "152339.124000", "152339.127000", "152339.130000", "152339.133000", "152339.135000", "152339.138000", "152339.142000", "152339.145000", "152339.148000", "152339.151000", "152339.154000", "152339.156000", "152339.159000", "152339.162000", "152339.165000", "152339.167000", "152339.170000", "152339.173000", "152419.101000", "152419.104000", "152419.107000", "152419.109000", "152419.112000", "152419.115000", "152419.118000", "152419.121000", "152419.123000", "152419.126000", "152419.129000", "152419.132000", "152419.134000", "152419.137000", "152419.140000", "152419.143000", "152419.146000", "152419.149000", "152419.151000", "152419.154000", "152419.157000", "152419.159000", "152419.162000", "152419.165000", "152419.168000", "152419.171000", "152419.173000", "152447.716000", "152447.719000", "152447.722000", "152447.725000", "152447.728000", "152447.730000", "152447.733000", "152447.744000", "152447.747000", "152447.751000", "152447.754000", "152447.757000", "152447.760000", "152447.763000", "152447.766000", "152447.769000", "152447.772000", "152447.774000", "152447.777000"],
      "InstanceCreationTime": ["152059.106000", "152059.118000", "152059.124000", "152059.127000", "152059.130000", "152059.133000", "152059.136000", "152059.138000", "152059.141000", "152059.144000", "152059.147000", "152059.149000", "152059.152000", "152059.156000", "152059.159000", "152059.162000", "152059.164000", "152059.167000", "152059.170000", "152059.175000", "152059.177000", "152059.180000", "152139.102000", "152139.105000", "152139.108000", "152139.110000", "152139.113000", "152139.117000", "152139.120000", "152139.123000", "152139.127000", "152139.129000", "152139.132000", "152139.135000", "152139.138000", "152139.141000", "152139.145000", "152139.148000", "152139.151000", "152139.154000", "152139.157000", "152139.160000", "152139.163000", "152139.166000", "152139.169000", "152139.178000", "152139.181000", "152139.185000", "152219.102000", "152219.105000", "152219.108000", "152219.111000", "152219.113000", "152219.116000", "152219.119000", "152219.122000", "152219.124000", "152219.127000", "152219.130000", "152219.133000", "152219.135000", "152219.138000", "152219.149000", "152219.152000", "152219.155000", "152219.158000", "152219.160000", "152219.163000", "152219.166000", "152219.169000", "152219.171000", "152219.174000", "152219.177000", "152219.180000", "152219.182000", "152259.102000", "152259.105000", "152259.108000", "152259.110000", "152259.113000", "152259.116000", "152259.119000", "152259.121000", "152259.124000", "152259.127000", "152259.130000", "152259.133000", "152259.135000", "152259.138000", "152259.141000", "152259.144000", "152259.147000", "152259.149000", "152259.152000", "152259.155000", "152259.158000", "152259.160000", "152259.163000", "152259.166000", "152259.169000", "152259.171000", "152259.174000", "152339.102000", "152339.105000", "152339.108000", "152339.110000", "152339.113000", "152339.116000", "152339.119000", "152339.121000", "152339.124000", "152339.127000", "152339.130000", "152339.133000", "152339.135000", "152339.138000", "152339.142000", "152339.145000", "152339.148000", "152339.151000", "152339.154000", "152339.156000", "152339.159000", "152339.162000", "152339.165000", "152339.167000", "152339.170000", "152339.173000", "152419.101000", "152419.104000", "152419.107000", "152419.109000", "152419.112000", "152419.115000", "152419.118000", "152419.121000", "152419.123000", "152419.126000", "152419.129000", "152419.132000", "152419.134000", "152419.137000", "152419.140000", "152419.143000", "152419.146000", "152419.149000", "152419.151000", "152419.154000", "152419.157000", "152419.159000", "152419.162000", "152419.165000", "152419.168000", "152419.171000", "152419.173000", "152447.716000", "152447.719000", "152447.722000", "152447.725000", "152447.728000", "152447.730000", "152447.733000", "152447.744000", "152447.747000", "152447.751000", "152447.754000", "152447.757000", "152447.760000", "152447.763000", "152447.766000", "152447.769000", "152447.772000", "152447.774000", "152447.777000"],
      "InstanceNumber": [1, 2, 3, 4, 5, 6, 7, 8, 9, 10, 11, 12, 13, 14, 15, 16, 17, 18, 19, 20, 21, 22, 23, 24, 25, 26, 27, 28, 29, 30, 31, 32, 33, 34, 35, 36, 37, 38, 39, 40, 41, 42, 43, 44, 45, 46, 47, 48, 49, 50, 51, 52, 53, 54, 55, 56, 57, 58, 59, 60, 61, 62, 63, 64, 65, 66, 67, 68, 69, 70, 71, 72, 73, 74, 75, 76, 77, 78, 79, 80, 81, 82, 83, 84, 85, 86, 87, 88, 89, 90, 91, 92, 93, 94, 95, 96, 97, 98, 99, 100, 101, 102, 103, 104, 105, 106, 107, 108, 109, 110, 111, 112, 113, 114, 115, 116, 117, 118, 119, 120, 121, 122, 123, 124, 125, 126, 127, 128, 129, 130, 131, 132, 133, 134, 135, 136, 137, 138, 139, 140, 141, 142, 143, 144, 145, 146, 147, 148, 149, 150, 151, 152, 153, 154, 155, 156, 157, 158, 159, 160, 161, 162, 163, 164, 165, 166, 167, 168, 169, 170, 171, 172, 173, 174],
      "LargestImagePixelValue": [2550, 2542, 2514, 2512, 2531, 2520, 2532, 2533, 2529, 2527, 2522, 2530, 2536, 2523, 2536, 2520, 2530, 2504, 2523, 2535, 2537, 2527, 2532, 2564, 2535, 2517, 2540, 2545, 2546, 2521, 2520, 2543, 2536, 2529, 2536, 2534, 2540, 2550, 2525, 2537, 2517, 2537, 2544, 2539, 2530, 2512, 2518, 2514, 2526, 2514, 2526, 2539, 2527, 2536, 2517, 2532, 2531, 2527, 2522, 2550, 2532, 2538, 2534, 2540, 2539, 2516, 2520, 2524, 2531, 2516, 2542, 2534, 2544, 2531, 2551, 2538, 2543, 2534, 2530, 2535, 2528, 2528, 2543, 2536, 2546, 2526, 2543, 2534, 2537, 2528, 2534, 2537, 2541, 2534, 2551, 2534, 2535, 2515, 2527, 2517, 2528, 2531, 2532, 2541, 2560, 2554, 2543, 2543, 2534, 2536, 2531, 2537, 2546, 2542, 2546, 2541, 2542, 2525, 2521, 2522, 2523, 2522, 2541, 2535, 2540, 2533, 2531, 2538, 2517, 2505, 2532, 2525, 2539, 2539, 2546, 2535, 2531, 2530, 2530, 2539, 2545, 2548, 2548, 2542, 2533, 2542, 2542, 2544, 2537, 2541, 2548, 2542, 2551, 2545, 2555, 2543, 2540, 2533, 2547, 2542, 2557, 2535, 2549, 2538, 2543, 2532, 2542, 2574, 2508, 2505, 2520, 2511, 2523, 2503],
      "WindowCenter": [710.0, 711.0, 711.0, 711.0, 712.0, 712.0, 712.0, 712.0, 711.0, 711.0, 710.0, 709.0, 710.0, 709.0, 710.0, 709.0, 709.0, 708.0, 709.0, 710.0, 711.0, 711.0, 712.0, 713.0, 713.0, 712.0, 712.0, 712.0, 711.0, 711.0, 710.0, 711.0, 712.0, 713.0, 713.0, 713.0, 713.0, 712.0, 711.0, 711.0, 711.0, 712.0, 711.0, 711.0, 711.0, 710.0, 710.0, 709.0, 709.0, 709.0, 710.0, 712.0, 712.0, 712.0, 711.0, 712.0, 711.0, 711.0, 711.0, 711.0, 711.0, 710.0, 710.0, 711.0, 711.0, 711.0, 711.0, 710.0, 710.0, 710.0, 711.0, 711.0, 711.0, 711.0, 712.0, 711.0, 711.0, 711.0, 711.0, 710.0, 710.0, 710.0, 711.0, 711.0, 711.0, 712.0, 711.0, 710.0, 710.0, 708.0, 709.0, 709.0, 710.0, 710.0, 710.0, 710.0, 710.0, 709.0, 709.0, 708.0, 708.0, 709.0, 710.0, 711.0, 711.0, 712.0, 712.0, 711.0, 710.0, 709.0, 709.0, 709.0, 710.0, 711.0, 712.0, 713.0, 712.0, 711.0, 711.0, 710.0, 710.0, 710.0, 710.0, 711.0, 711.0, 711.0, 711.0, 710.0, 709.0, 709.0, 710.0, 710.0, 711.0, 711.0, 711.0, 710.0, 709.0, 709.0, 709.0, 710.0, 711.0, 712.0, 712.0, 712.0, 712.0, 712.0, 711.0, 711.0, 711.0, 711.0, 712.0, 713.0, 713.0, 713.0, 713.0, 712.0, 712.0, 711.0, 712.0, 712.0, 712.0, 712.0, 711.0, 710.0, 709.0, 710.0, 710.0, 714.0, 712.0, 712.0, 712.0, 711.0, 711.0, 710.0],
      "WindowWidth": [1549.0, 1550.0, 1551.0, 1552.0, 1554.0, 1553.0, 1554.0, 1553.0, 1552.0, 1550.0, 1548.0, 1546.0, 1547.0, 1546.0, 1547.0, 1545.0, 1545.0, 1543.0, 1544.0, 1547.0, 1550.0, 1552.0, 1554.0, 1555.0, 1556.0, 1554.0, 1554.0, 1552.0, 1551.0, 1550.0, 1548.0, 1552.0, 1553.0, 1556.0, 1558.0, 1557.0, 1556.0, 1554.0, 1551.0, 1550.0, 1550.0, 1552.0, 1551.0, 1551.0, 1550.0, 1548.0, 1547.0, 1545.0, 1546.0, 1547.0, 1548.0, 1553.0, 1553.0, 1554.0, 1552.0, 1553.0, 1552.0, 1550.0, 1550.0, 1551.0, 1550.0, 1549.0, 1548.0, 1551.0, 1552.0, 1551.0, 1549.0, 1548.0, 1549.0, 1549.0, 1549.0, 1550.0, 1551.0, 1551.0, 1552.0, 1551.0, 1551.0, 1550.0, 1550.0, 1549.0, 1549.0, 1548.0, 1550.0, 1551.0, 1552.0, 1552.0, 1551.0, 1549.0, 1547.0, 1543.0, 1545.0, 1545.0, 1548.0, 1549.0, 1549.0, 1549.0, 1547.0, 1546.0, 1544.0, 1543.0, 1543.0, 1545.0, 1548.0, 1550.0, 1552.0, 1554.0, 1555.0, 1551.0, 1549.0, 1546.0, 1545.0, 1547.0, 1549.0, 1552.0, 1554.0, 1555.0, 1553.0, 1551.0, 1550.0, 1549.0, 1548.0, 1548.0, 1549.0, 1551.0, 1552.0, 1552.0, 1551.0, 1548.0, 1546.0, 1546.0, 1547.0, 1549.0, 1552.0, 1551.0, 1551.0, 1548.0, 1546.0, 1545.0, 1547.0, 1549.0, 1552.0, 1553.0, 1553.0, 1554.0, 1554.0, 1553.0, 1551.0, 1551.0, 1550.0, 1552.0, 1553.0, 1555.0, 1556.0, 1555.0, 1555.0, 1555.0, 1553.0, 1552.0, 1553.0, 1552.0, 1554.0, 1552.0, 1551.0, 1548.0, 1546.0, 1547.0, 1549.0, 1559.0, 1554.0, 1553.0, 1554.0, 1551.0, 1550.0, 1548.0]
    },
    "slices": {}
  }
}