{
  "AcquisitionMatrixPE": 74,
  "AcquisitionNumber": 1,
  "AcquisitionTime": "15:25:28.482500",
  "BandwidthPerPixelPhaseEncode": 25.497,
  "BaseResolution": 74,
  "BodyPartExamined": "BRAIN",
  "ConsistencyInfo": "N4_VE11C_LATEST_20160120",
  "ConversionSoftware": "dcm2niix",
  "ConversionSoftwareVersion": "v1.0.20190410  GCC6.3.0",
  "DerivedVendorReportedEchoSpacing": 0.000530004,
  "DeviceSerialNumber": "45031",
  "DwellTime": 3e-06,
  "EchoTime": 0.028,
  "EchoTrainLength": 74,
  "EffectiveEchoSpacing": 0.000530004,
  "FlipAngle": 80,
  "ImageOrientationPatientDICOM": [0.9993, 0.0351766, -0.0126972, -0.0361188, 0.995831, -0.0837631],
  "ImageType": [
    "ORIGINAL",
    "PRIMARY",
    "M",
    "ND",
    "MOSAIC"
],
  "ImagingFrequency": 123.25,
  "InPlanePhaseEncodingDirectionDICOM": "COL",
  "InstitutionAddress": "Washington_and_Faculty_Rd._-_Building_25_25_Princeton_NJ_US_08540",
  "InstitutionName": "Princeton_University_-_Neuroscience_Institute",
  "InstitutionalDepartmentName": "Department",
  "MRAcquisitionType": "2D",
  "MagneticFieldStrength": 3,
  "Manufacturer": "Siemens",
  "ManufacturersModelName": "Skyra",
  "Modality": "MR",
  "MultibandAccelerationFactor": 2,
  "PartialFourier": 1,
  "PatientPosition": "HFS",
  "PercentPhaseFOV": 100,
  "PhaseEncodingDirection": "j-",
  "PhaseEncodingSteps": 74,
  "PhaseResolution": 1,
  "PixelBandwidth": 2250,
  "ProcedureStepDescription": "NormaL_Robert_Tangrams",
  "ProtocolName": "func_task-Repeated_run-05",
  "PulseSequenceDetails": "%SiemensSeq%_ep2d_bold",
  "ReceiveCoilActiveElements": "HC1-7",
  "ReceiveCoilName": "HeadNeck_64",
  "ReconMatrixPE": 74,
  "RefLinesPE": 12,
  "RepetitionTime": 1.5,
  "SAR": 0.0879428,
  "ScanOptions": "FS",
  "ScanningSequence": "EP",
  "SequenceName": "_epfid2d1_74",
  "SequenceVariant": "SK",
  "SeriesDescription": "func_task-Repeated_run-05",
  "SeriesNumber": 12,
  "ShimSetting": [3373, 8748, 9246, 405, 57, -636, 310, 233],
  "SliceThickness": 3,
  "SliceTiming": [0.7075, 0, 0.7725, 0.065, 0.8375, 0.13, 0.9025, 0.1925, 0.965, 0.2575, 1.03, 0.3225, 1.095, 0.3875, 1.1575, 0.45, 1.2225, 0.515, 1.2875, 0.58, 1.3525, 0.645, 1.415, 0.7075, 0, 0.7725, 0.065, 0.8375, 0.13, 0.9025, 0.1925, 0.965, 0.2575, 1.03, 0.3225, 1.095, 0.3875, 1.1575, 0.45, 1.2225, 0.515, 1.2875, 0.58, 1.3525, 0.645, 1.415],
  "SoftwareVersions": "syngo_MR_E11",
  "SpacingBetweenSlices": 3,
  "StationName": "AWP45031",
  "TaskName": "Repeated",
  "TotalReadoutTime": 0.0386903,
  "TxRefAmp": 323.535,
  "dcmmeta_affine": [
    [-2.997901439666748, -0.10835637152194977, -0.02909316122531891, 113.60340118408203],
    [-0.10552988201379776, 2.987492799758911, -0.25248920917510986, -120.78832244873047],
    [-0.038091473281383514, 0.25128915905952454, 2.9892144203186035, -73.77299499511719],
    [0.0, 0.0, 0.0, 1.0]
],
  "dcmmeta_reorient_transform": [
    [0.0, -1.0, 0.0, 73.0],
    [1.0, 0.0, 0.0, 0.0],
    [0.0, 0.0, 1.0, 0.0],
    [0.0, 0.0, 0.0, 1.0]
],
  "dcmmeta_shape": [74, 74, 46, 177],
  "dcmmeta_slice_dim": 2,
  "dcmmeta_version": 0.6,
  "global": {
    "const": {
      "AcquisitionMatrix": [74, 0, 0, 74],
      "AngioFlag": "N",
      "BitsAllocated": 16,
      "BitsStored": 12,
      "BodyPartExamined": "BRAIN",
      "Columns": 518,
      "EchoNumbers": 1,
      "EchoTime": 28.0,
      "EchoTrainLength": 74,
      "FlipAngle": 80.0,
      "HighBit": 11,
      "ImageOrientationPatient": [0.99930044887688, 0.03517662656245, -0.0126971578767, -0.0361187914218, 0.99583090088876, -0.0837630571393],
      "ImagePositionPatient": [-747.17236632465, -783.94965844568, 8.8136159980836],
      "ImageType": [
        "ORIGINAL",
        "PRIMARY",
        "M",
        "ND",
        "MOSAIC"
],
      "ImagedNucleus": "1H",
      "ImagingFrequency": 123.250234,
      "InPlanePhaseEncodingDirection": "COL",
      "MRAcquisitionType": "2D",
      "MagneticFieldStrength": 3.0,
      "Manufacturer": "SIEMENS",
      "ManufacturerModelName": "Skyra",
      "Modality": "MR",
      "NumberOfAverages": 1.0,
      "NumberOfPhaseEncodingSteps": 74,
      "PercentPhaseFieldOfView": 100.0,
      "PercentSampling": 100.0,
      "PerformedProcedureStepStartTime": "141411.814000",
      "PhotometricInterpretation": "MONOCHROME2",
      "PixelBandwidth": 2250.0,
      "PixelRepresentation": 0,
      "PixelSpacing": [3.0, 3.0],
      "ProtocolName": "func_task-Repeated_run-05",
      "RepetitionTime": 1500.0,
      "Rows": 518,
      "SAR": 0.08794282509794,
      "SamplesPerPixel": 1,
      "ScanOptions": "FS",
      "ScanningSequence": "EP",
      "SequenceName": "*epfid2d1_74",
      "SequenceVariant": "SK",
      "SeriesDescription": "func_task-Repeated_run-05",
      "SeriesNumber": 12,
      "SeriesTime": "152613.459000",
      "SliceLocation": -64.443546683676,
      "SliceThickness": 3.0,
      "SmallestImagePixelValue": 0,
      "SoftwareVersions": "syngo MR E11",
      "SpacingBetweenSlices": 3.0000000006903,
      "SpecificCharacterSet": "ISO_IR 100",
      "StudyID": "1",
      "StudyTime": "141411.752000",
      "TransmitCoilName": "Body",
      "VariableFlipAngleFlag": "N",
      "WindowCenterWidthExplanation": "Algo1",
      "dBdt": 0.0},
    "slices": {}
  },
  "time": {
    "samples": {
      "AcquisitionNumber": [1, 2, 3, 4, 5, 6, 7, 8, 9, 10, 11, 12, 13, 14, 15, 16, 17, 18, 19, 20, 21, 22, 23, 24, 25, 26, 27, 28, 29, 30, 31, 32, 33, 34, 35, 36, 37, 38, 39, 40, 41, 42, 43, 44, 45, 46, 47, 48, 49, 50, 51, 52, 53, 54, 55, 56, 57, 58, 59, 60, 61, 62, 63, 64, 65, 66, 67, 68, 69, 70, 71, 72, 73, 74, 75, 76, 77, 78, 79, 80, 81, 82, 83, 84, 85, 86, 87, 88, 89, 90, 91, 92, 93, 94, 95, 96, 97, 98, 99, 100, 101, 102, 103, 104, 105, 106, 107, 108, 109, 110, 111, 112, 113, 114, 115, 116, 117, 118, 119, 120, 121, 122, 123, 124, 125, 126, 127, 128, 129, 130, 131, 132, 133, 134, 135, 136, 137, 138, 139, 140, 141, 142, 143, 144, 145, 146, 147, 148, 149, 150, 151, 152, 153, 154, 155, 156, 157, 158, 159, 160, 161, 162, 163, 164, 165, 166, 167, 168, 169, 170, 171, 172, 173, 174, 175, 176, 177],
      "AcquisitionTime": ["152528.482500", "152529.982500", "152531.482500", "152532.982500", "152534.482500", "152535.982500", "152537.482500", "152538.982500", "152540.482500", "152541.982500", "152543.482500", "152544.982500", "152546.482500", "152547.982500", "152549.482500", "152550.982500", "152552.482500", "152553.982500", "152555.482500", "152556.982500", "152558.482500", "152559.982500", "152601.482500", "152602.982500", "152604.482500", "152605.982500", "152607.482500", "152608.982500", "152610.482500", "152611.982500", "152613.482500", "152614.982500", "152616.482500", "152617.982500", "152619.482500", "152620.982500", "152622.482500", "152623.982500", "152625.482500", "152626.982500", "152628.482500", "152629.982500", "152631.482500", "152632.982500", "152634.482500", "152635.982500", "152637.482500", "152638.982500", "152640.482500", "152641.982500", "152643.482500", "152644.982500", "152646.482500", "152647.982500", "152649.482500", "152650.982500", "152652.482500", "152653.982500", "152655.482500", "152656.982500", "152658.482500", "152659.982500", "152701.482500", "152702.982500", "152704.482500", "152705.982500", "152707.482500", "152708.982500", "152710.482500", "152711.982500", "152713.482500", "152714.982500", "152716.482500", "152717.982500", "152719.482500", "152720.982500", "152722.482500", "152723.982500", "152725.482500", "152726.982500", "152728.482500", "152729.982500", "152731.482500", "152732.982500", "152734.482500", "152735.982500", "152737.482500", "152738.982500", "152740.482500", "152741.982500", "152743.482500", "152744.982500", "152746.482500", "152747.982500", "152749.482500", "152750.982500", "152752.482500", "152753.982500", "152755.482500", "152756.982500", "152758.482500", "152759.982500", "152801.482500", "152802.982500", "152804.482500", "152805.982500", "152807.482500", "152808.982500", "152810.482500", "152811.982500", "152813.482500", "152814.982500", "152816.482500", "152817.982500", "152819.482500", "152820.982500", "152822.482500", "152823.982500", "152825.482500", "152826.982500", "152828.482500", "152829.982500", "152831.482500", "152832.982500", "152834.482500", "152835.982500", "152837.482500", "152838.982500", "152840.482500", "152841.982500", "152843.482500", "152844.982500", "152846.482500", "152847.982500", "152849.482500", "152850.982500", "152852.482500", "152853.982500", "152855.482500", "152856.982500", "152858.482500", "152859.982500", "152901.482500", "152902.982500", "152904.482500", "152905.982500", "152907.482500", "152908.982500", "152910.482500", "152911.982500", "152913.482500", "152914.982500", "152916.482500", "152917.982500", "152919.482500", "152920.982500", "152922.482500", "152923.982500", "152925.482500", "152926.982500", "152928.482500", "152929.982500", "152931.482500", "152932.982500", "152934.482500", "152935.982500", "152937.482500", "152938.982500", "152940.482500", "152941.982500", "152943.482500", "152944.982500", "152946.482500", "152947.982500", "152949.482500", "152950.982500", "152952.482500"],
      "ContentTime": ["152613.462000", "152613.466000", "152613.469000", "152613.472000", "152613.475000", "152613.484000", "152613.487000", "152613.490000", "152613.501000", "152613.504000", "152613.506000", "152613.509000", "152613.512000", "152613.515000", "152613.517000", "152613.520000", "152613.523000", "152613.526000", "152613.529000", "152613.531000", "152613.534000", "152613.537000", "152613.540000", "152613.543000", "152613.545000", "152613.548000", "152613.551000", "152613.554000", "152613.556000", "152613.559000", "152653.457000", "152653.460000", "152653.463000", "152653.465000", "152653.473000", "152653.476000", "152653.478000", "152653.481000", "152653.484000", "152653.487000", "152653.489000", "152653.492000", "152653.495000", "152653.498000", "152653.501000", "152653.503000", "152653.506000", "152653.509000", "152653.512000", "152653.514000", "152653.517000", "152653.520000", "152653.522000", "152653.525000", "152653.528000", "152653.531000", "152713.457000", "152713.460000", "152713.462000", "152713.465000", "152713.468000", "152713.471000", "152713.474000", "152713.488000", "152713.491000", "152713.494000", "152713.496000", "152713.499000", "152713.502000", "152713.505000", "152753.458000", "152753.461000", "152753.464000", "152753.466000", "152753.469000", "152753.472000", "152753.475000", "152753.477000", "152753.480000", "152753.483000", "152753.486000", "152753.496000", "152753.499000", "152753.502000", "152753.504000", "152753.507000", "152753.510000", "152753.513000", "152753.515000", "152753.518000", "152753.521000", "152753.524000", "152753.526000", "152753.529000", "152753.532000", "152753.535000", "152833.458000", "152833.461000", "152833.464000", "152833.466000", "152833.469000", "152833.472000", "152833.475000", "152833.477000", "152833.480000", "152833.483000", "152833.486000", "152833.488000", "152833.491000", "152833.494000", "152833.497000", "152833.500000", "152833.503000", "152833.506000", "152833.509000", "152833.512000", "152833.514000", "152833.517000", "152833.520000", "152833.523000", "152833.526000", "152833.528000", "152833.531000", "152913.457000", "152913.460000", "152913.462000", "152913.465000", "152913.468000", "152913.471000", "152913.474000", "152913.476000", "152913.479000", "152913.482000", "152913.485000", "152913.487000", "152913.490000", "152913.493000", "152913.496000", "152913.498000", "152913.501000", "152913.504000", "152913.507000", "152913.509000", "152913.512000", "152913.515000", "152913.518000", "152913.520000", "152913.523000", "152913.526000", "152913.529000", "152953.457000", "152953.460000", "152953.462000", "152953.465000", "152953.468000", "152953.471000", "152953.474000", "152953.476000", "152953.479000", "152953.482000", "152953.485000", "152953.487000", "152953.490000", "152953.493000", "152953.496000", "152953.499000", "152953.502000", "152953.504000", "152953.507000", "152953.510000", "152953.513000", "152953.515000", "152953.518000", "152953.521000", "152953.524000", "152953.526000", "152955.019000"],
      "InstanceCreationTime": ["152613.462000", "152613.466000", "152613.469000", "152613.472000", "152613.475000", "152613.484000", "152613.487000", "152613.490000", "152613.501000", "152613.504000", "152613.506000", "152613.509000", "152613.512000", "152613.515000", "152613.517000", "152613.520000", "152613.523000", "152613.526000", "152613.529000", "152613.531000", "152613.534000", "152613.537000", "152613.540000", "152613.543000", "152613.545000", "152613.548000", "152613.551000", "152613.554000", "152613.556000", "152613.559000", "152653.457000", "152653.460000", "152653.463000", "152653.465000", "152653.473000", "152653.476000", "152653.478000", "152653.481000", "152653.484000", "152653.487000", "152653.489000", "152653.492000", "152653.495000", "152653.498000", "152653.501000", "152653.503000", "152653.506000", "152653.509000", "152653.512000", "152653.514000", "152653.517000", "152653.520000", "152653.522000", "152653.525000", "152653.528000", "152653.531000", "152713.457000", "152713.460000", "152713.462000", "152713.465000", "152713.468000", "152713.471000", "152713.474000", "152713.488000", "152713.491000", "152713.494000", "152713.496000", "152713.499000", "152713.502000", "152713.505000", "152753.458000", "152753.461000", "152753.464000", "152753.466000", "152753.469000", "152753.472000", "152753.475000", "152753.477000", "152753.480000", "152753.483000", "152753.486000", "152753.496000", "152753.499000", "152753.502000", "152753.504000", "152753.507000", "152753.510000", "152753.513000", "152753.515000", "152753.518000", "152753.521000", "152753.524000", "152753.526000", "152753.529000", "152753.532000", "152753.535000", "152833.458000", "152833.461000", "152833.464000", "152833.466000", "152833.469000", "152833.472000", "152833.475000", "152833.477000", "152833.480000", "152833.483000", "152833.486000", "152833.488000", "152833.491000", "152833.494000", "152833.497000", "152833.500000", "152833.503000", "152833.506000", "152833.509000", "152833.512000", "152833.514000", "152833.517000", "152833.520000", "152833.523000", "152833.526000", "152833.528000", "152833.531000", "152913.457000", "152913.460000", "152913.462000", "152913.465000", "152913.468000", "152913.471000", "152913.474000", "152913.476000", "152913.479000", "152913.482000", "152913.485000", "152913.487000", "152913.490000", "152913.493000", "152913.496000", "152913.498000", "152913.501000", "152913.504000", "152913.507000", "152913.509000", "152913.512000", "152913.515000", "152913.518000", "152913.520000", "152913.523000", "152913.526000", "152913.529000", "152953.457000", "152953.460000", "152953.462000", "152953.465000", "152953.468000", "152953.471000", "152953.474000", "152953.476000", "152953.479000", "152953.482000", "152953.485000", "152953.487000", "152953.490000", "152953.493000", "152953.496000", "152953.499000", "152953.502000", "152953.504000", "152953.507000", "152953.510000", "152953.513000", "152953.515000", "152953.518000", "152953.521000", "152953.524000", "152953.526000", "152955.019000"],
      "InstanceNumber": [1, 2, 3, 4, 5, 6, 7, 8, 9, 10, 11, 12, 13, 14, 15, 16, 17, 18, 19, 20, 21, 22, 23, 24, 25, 26, 27, 28, 29, 30, 31, 32, 33, 34, 35, 36, 37, 38, 39, 40, 41, 42, 43, 44, 45, 46, 47, 48, 49, 50, 51, 52, 53, 54, 55, 56, 57, 58, 59, 60, 61, 62, 63, 64, 65, 66, 67, 68, 69, 70, 71, 72, 73, 74, 75, 76, 77, 78, 79, 80, 81, 82, 83, 84, 85, 86, 87, 88, 89, 90, 91, 92, 93, 94, 95, 96, 97, 98, 99, 100, 101, 102, 103, 104, 105, 106, 107, 108, 109, 110, 111, 112, 113, 114, 115, 116, 117, 118, 119, 120, 121, 122, 123, 124, 125, 126, 127, 128, 129, 130, 131, 132, 133, 134, 135, 136, 137, 138, 139, 140, 141, 142, 143, 144, 145, 146, 147, 148, 149, 150, 151, 152, 153, 154, 155, 156, 157, 158, 159, 160, 161, 162, 163, 164, 165, 166, 167, 168, 169, 170, 171, 172, 173, 174, 175, 176, 177],
      "LargestImagePixelValue": [2596, 2596, 2570, 2564, 2553, 2556, 2540, 2553, 2538, 2541, 2556, 2525, 2511, 2513, 2517, 2539, 2523, 2508, 2522, 2559, 2532, 2546, 2511, 2511, 2533, 2506, 2540, 2527, 2543, 2529, 2513, 2534, 2516, 2532, 2529, 2542, 2558, 2534, 2552, 2514, 2520, 2524, 2513, 2512, 2532, 2535, 2525, 2528, 2542, 2519, 2511, 2504, 2492, 2507, 2527, 2518, 2535, 2522, 2525, 2536, 2527, 2509, 2515, 2517, 2522, 2535, 2533, 2537, 2521, 2521, 2509, 2517, 2515, 2511, 2513, 2513, 2519, 2517, 2544, 2510, 2513, 2514, 2507, 2532, 2513, 2515, 2533, 2510, 2493, 2481, 2491, 2515, 2519, 2509, 2505, 2520, 2506, 2526, 2503, 2512, 2530, 2512, 2520, 2501, 2521, 2514, 2506, 2508, 2529, 2490, 2511, 2515, 2526, 2525, 2543, 2539, 2540, 2528, 2509, 2504, 2487, 2482, 2501, 2508, 2528, 2533, 2517, 2519, 2518, 2539, 2561, 2560, 2559, 2528, 2516, 2523, 2505, 2521, 2529, 2535, 2546, 2526, 2552, 2546, 2565, 2551, 2558, 2542, 2516, 2493, 2522, 2515, 2519, 2507, 2463, 2580, 2526, 2513, 2499, 2460, 2477, 2476, 2479, 2481, 2490, 2520, 2589, 2523, 2548, 2503, 2439, 2505, 2558, 2531, 2539, 2544, 2558],
      "WindowCenter": [719.0, 718.0, 716.0, 713.0, 711.0, 710.0, 710.0, 710.0, 710.0, 709.0, 710.0, 709.0, 709.0, 709.0, 709.0, 710.0, 709.0, 708.0, 708.0, 708.0, 708.0, 708.0, 708.0, 708.0, 709.0, 709.0, 710.0, 710.0, 710.0, 710.0, 709.0, 709.0, 710.0, 710.0, 710.0, 710.0, 710.0, 709.0, 709.0, 709.0, 709.0, 709.0, 710.0, 710.0, 711.0, 711.0, 711.0, 711.0, 712.0, 711.0, 710.0, 709.0, 708.0, 708.0, 709.0, 711.0, 711.0, 711.0, 711.0, 711.0, 710.0, 710.0, 710.0, 710.0, 711.0, 712.0, 713.0, 712.0, 711.0, 709.0, 709.0, 709.0, 710.0, 710.0, 710.0, 709.0, 709.0, 708.0, 708.0, 707.0, 707.0, 707.0, 708.0, 709.0, 710.0, 710.0, 709.0, 708.0, 706.0, 706.0, 706.0, 709.0, 710.0, 710.0, 710.0, 711.0, 709.0, 709.0, 708.0, 710.0, 711.0, 711.0, 710.0, 710.0, 709.0, 709.0, 709.0, 709.0, 709.0, 709.0, 708.0, 709.0, 709.0, 710.0, 711.0, 711.0, 711.0, 710.0, 709.0, 709.0, 708.0, 709.0, 709.0, 709.0, 710.0, 709.0, 710.0, 710.0, 710.0, 710.0, 711.0, 712.0, 712.0, 710.0, 708.0, 707.0, 706.0, 708.0, 709.0, 710.0, 711.0, 711.0, 711.0, 711.0, 711.0, 711.0, 711.0, 711.0, 708.0, 707.0, 708.0, 707.0, 708.0, 706.0, 703.0, 705.0, 703.0, 703.0, 702.0, 698.0, 702.0, 702.0, 701.0, 701.0, 700.0, 706.0, 711.0, 710.0, 709.0, 704.0, 699.0, 706.0, 710.0, 707.0, 710.0, 713.0, 714.0],
      "WindowWidth": [1572.0, 1568.0, 1562.0, 1556.0, 1550.0, 1548.0, 1547.0, 1548.0, 1547.0, 1546.0, 1547.0, 1545.0, 1545.0, 1546.0, 1545.0, 1547.0, 1545.0, 1542.0, 1542.0, 1543.0, 1542.0, 1542.0, 1541.0, 1543.0, 1545.0, 1546.0, 1548.0, 1547.0, 1548.0, 1547.0, 1546.0, 1546.0, 1547.0, 1548.0, 1548.0, 1549.0, 1548.0, 1546.0, 1545.0, 1545.0, 1545.0, 1546.0, 1547.0, 1548.0, 1550.0, 1549.0, 1550.0, 1551.0, 1552.0, 1550.0, 1548.0, 1545.0, 1541.0, 1542.0, 1546.0, 1550.0, 1552.0, 1552.0, 1551.0, 1552.0, 1548.0, 1548.0, 1547.0, 1548.0, 1552.0, 1554.0, 1556.0, 1553.0, 1550.0, 1546.0, 1544.0, 1545.0, 1548.0, 1548.0, 1547.0, 1546.0, 1545.0, 1544.0, 1543.0, 1539.0, 1540.0, 1540.0, 1542.0, 1546.0, 1548.0, 1547.0, 1545.0, 1541.0, 1537.0, 1536.0, 1538.0, 1544.0, 1547.0, 1548.0, 1548.0, 1549.0, 1545.0, 1545.0, 1543.0, 1547.0, 1551.0, 1551.0, 1549.0, 1547.0, 1546.0, 1545.0, 1544.0, 1545.0, 1545.0, 1544.0, 1543.0, 1545.0, 1546.0, 1547.0, 1550.0, 1550.0, 1550.0, 1546.0, 1544.0, 1544.0, 1542.0, 1544.0, 1546.0, 1545.0, 1547.0, 1546.0, 1549.0, 1549.0, 1548.0, 1549.0, 1551.0, 1554.0, 1553.0, 1547.0, 1543.0, 1540.0, 1537.0, 1543.0, 1545.0, 1549.0, 1550.0, 1551.0, 1551.0, 1550.0, 1551.0, 1549.0, 1550.0, 1549.0, 1543.0, 1541.0, 1542.0, 1540.0, 1541.0, 1536.0, 1529.0, 1535.0, 1529.0, 1529.0, 1527.0, 1516.0, 1528.0, 1528.0, 1523.0, 1524.0, 1522.0, 1538.0, 1552.0, 1548.0, 1545.0, 1534.0, 1519.0, 1536.0, 1548.0, 1541.0, 1550.0, 1555.0, 1560.0]
    },
    "slices": {}
  }
}