{
  "AcquisitionMatrixPE": 74,
  "AcquisitionNumber": 1,
  "AcquisitionTime": "12:06:33.725000",
  "BandwidthPerPixelPhaseEncode": 25.497,
  "BaseResolution": 74,
  "BodyPartExamined": "BRAIN",
  "CoilCombinationMethod": "Sum of Squares",
  "ConsistencyInfo": "N4_VE11C_LATEST_20160120",
  "ConversionSoftware": "dcm2niix",
  "ConversionSoftwareVersion": "v1.0.20220720",
  "DerivedVendorReportedEchoSpacing": 0.000530004,
  "DeviceSerialNumber": "66018",
  "DwellTime": 3e-06,
  "EchoTime": 0.028,
  "EchoTrainLength": 74,
  "EffectiveEchoSpacing": 0.000530004,
  "FlipAngle": 80,
  "HeudiconvVersion": "0.12.2",
  "ImageOrientationPatientDICOM": [0.999713, 0.020913, 0.0116833, -0.0198936, 0.99648, -0.0814369],
  "ImageOrientationText": "Tra>Cor(-4.7)>Sag(0.8)",
  "ImageType": [
    "ORIGINAL",
    "PRIMARY",
    "M",
    "ND",
    "MOSAIC"
],
  "ImagingFrequency": 123.168,
  "InPlanePhaseEncodingDirectionDICOM": "COL",
  "InstitutionAddress": "Stadium 1952,Princeton,NJ,US,08544",
  "InstitutionName": "Princeton University",
  "InstitutionalDepartmentName": "NeuroScience",
  "MRAcquisitionType": "2D",
  "MagneticFieldStrength": 3,
  "Manufacturer": "Siemens",
  "ManufacturersModelName": "Prisma",
  "Modality": "MR",
  "MultibandAccelerationFactor": 2,
  "NonlinearGradientCorrection": false,
  "PartialFourier": 1,
  "PatientPosition": "HFS",
  "PercentPhaseFOV": 100,
  "PercentSampling": 100,
  "PhaseEncodingDirection": "j-",
  "PhaseEncodingSteps": 74,
  "PhaseResolution": 1,
  "PixelBandwidth": 2250,
  "ProcedureStepDescription": "NormaL_Robert^Tangrams",
  "ProtocolName": "func_task-PostExposure_run-01",
  "PulseSequenceDetails": "%SiemensSeq%\\ep2d_bold",
  "ReceiveCoilActiveElements": "HC1-7",
  "ReceiveCoilName": "HeadNeck_64",
  "ReconMatrixPE": 74,
  "RefLinesPE": 12,
  "RepetitionTime": 1.5,
  "SAR": 0.0658071,
  "ScanOptions": "FS",
  "ScanningSequence": "EP",
  "SequenceName": "*epfid2d1_74",
  "SequenceVariant": "SK",
  "SeriesDescription": "func_task-PostExposure_run-01",
  "SeriesNumber": 15,
  "ShimSetting": [710, 517, 2149, 540, -122, 23, 202, 110],
  "SliceThickness": 3,
  "SliceTiming": [0.7075, 0, 0.7725, 0.065, 0.835, 0.1275, 0.9, 0.1925, 0.965, 0.2575, 1.03, 0.3225, 1.0925, 0.385, 1.1575, 0.45, 1.2225, 0.515, 1.2875, 0.58, 1.35, 0.6425, 1.415, 0.7075, 0, 0.7725, 0.065, 0.835, 0.1275, 0.9, 0.1925, 0.965, 0.2575, 1.03, 0.3225, 1.0925, 0.385, 1.1575, 0.45, 1.2225, 0.515, 1.2875, 0.58, 1.35, 0.6425, 1.415],
  "SoftwareVersions": "syngo MR E11",
  "SpacingBetweenSlices": 3,
  "StationName": "AWP66018",
  "TaskName": "PostExposure",
  "TotalReadoutTime": 0.0386903,
  "TxRefAmp": 230.909,
  "dcmmeta_affine": [
    [-2.9991390705108643, -0.05968081206083298, 0.040035929530858994, 114.2556381225586],
    [-0.06273889541625977, 2.9894397258758545, -0.24354322254657745, -95.6404037475586],
    [0.03505004942417145, 0.24431061744689941, 2.9898300170898438, -68.9301528930664],
    [0.0, 0.0, 0.0, 1.0]
],
  "dcmmeta_reorient_transform": [
    [0.0, -1.0, 0.0, 73.0],
    [1.0, 0.0, 0.0, 0.0],
    [0.0, 0.0, 1.0, 0.0],
    [0.0, 0.0, 0.0, 1.0]
],
  "dcmmeta_shape": [74, 74, 46, 175],
  "dcmmeta_slice_dim": 2,
  "dcmmeta_version": 0.6,
  "global": {
    "const": {
      "AcquisitionMatrix": [74, 0, 0, 74],
      "AngioFlag": "N",
      "BitsAllocated": 16,
      "BitsStored": 12,
      "BodyPartExamined": "BRAIN",
      "Columns": 518,
      "EchoNumbers": 1,
      "EchoTime": 28.0,
      "EchoTrainLength": 74,
      "FlipAngle": 80.0,
      "HighBit": 11,
      "ImageOrientationPatient": [0.99971303242552, 0.02091296579653, 0.01168334969834, -0.0198936043769, 0.99647994485183, -0.081436871336],
      "ImagePositionPatient": [-762.45867490957, -800.17238025786, -4.6396331943524],
      "ImageType": [
        "ORIGINAL",
        "PRIMARY",
        "M",
        "ND",
        "MOSAIC"
],
      "ImagedNucleus": "1H",
      "ImagingFrequency": 123.16768,
      "InPlanePhaseEncodingDirection": "COL",
      "MRAcquisitionType": "2D",
      "MagneticFieldStrength": 3.0,
      "Manufacturer": "SIEMENS",
      "ManufacturerModelName": "Prisma",
      "Modality": "MR",
      "NumberOfAverages": 1.0,
      "NumberOfPhaseEncodingSteps": 74,
      "PercentPhaseFieldOfView": 100.0,
      "PercentSampling": 100.0,
      "PerformedProcedureStepStartTime": "091615.082000",
      "PhotometricInterpretation": "MONOCHROME2",
      "PixelBandwidth": 2250.0,
      "PixelRepresentation": 0,
      "PixelSpacing": [3.0, 3.0],
      "ProtocolName": "func_task-PostExposure_run-01",
      "RepetitionTime": 1500.0,
      "Rows": 518,
      "SAR": 0.06580706525651,
      "SamplesPerPixel": 1,
      "ScanOptions": "FS",
      "ScanningSequence": "EP",
      "SequenceName": "*epfid2d1_74",
      "SequenceVariant": "SK",
      "SeriesDescription": "func_task-PostExposure_run-01",
      "SeriesNumber": 15,
      "SeriesTime": "120635.906000",
      "SliceLocation": -59.407513572972,
      "SliceThickness": 3.0,
      "SmallestImagePixelValue": 0,
      "SoftwareVersions": "syngo MR E11",
      "SpacingBetweenSlices": 2.9999999523655,
      "SpecificCharacterSet": "ISO_IR 100",
      "StudyID": "1",
      "StudyTime": "091614.917000",
      "TransmitCoilName": "Body",
      "VariableFlipAngleFlag": "N",
      "WindowCenterWidthExplanation": "Algo1",
      "dBdt": 0.0},
    "slices": {}
  },
  "time": {
    "samples": {
      "AcquisitionNumber": [1, 2, 3, 4, 5, 6, 7, 8, 9, 10, 11, 12, 13, 14, 15, 16, 17, 18, 19, 20, 21, 22, 23, 24, 25, 26, 27, 28, 29, 30, 31, 32, 33, 34, 35, 36, 37, 38, 39, 40, 41, 42, 43, 44, 45, 46, 47, 48, 49, 50, 51, 52, 53, 54, 55, 56, 57, 58, 59, 60, 61, 62, 63, 64, 65, 66, 67, 68, 69, 70, 71, 72, 73, 74, 75, 76, 77, 78, 79, 80, 81, 82, 83, 84, 85, 86, 87, 88, 89, 90, 91, 92, 93, 94, 95, 96, 97, 98, 99, 100, 101, 102, 103, 104, 105, 106, 107, 108, 109, 110, 111, 112, 113, 114, 115, 116, 117, 118, 119, 120, 121, 122, 123, 124, 125, 126, 127, 128, 129, 130, 131, 132, 133, 134, 135, 136, 137, 138, 139, 140, 141, 142, 143, 144, 145, 146, 147, 148, 149, 150, 151, 152, 153, 154, 155, 156, 157, 158, 159, 160, 161, 162, 163, 164, 165, 166, 167, 168, 169, 170, 171, 172, 173, 174, 175],
      "AcquisitionTime": ["120633.725000", "120635.225000", "120636.725000", "120638.225000", "120639.725000", "120641.225000", "120642.725000", "120644.225000", "120645.725000", "120647.225000", "120648.725000", "120650.225000", "120651.725000", "120653.225000", "120654.725000", "120656.225000", "120657.725000", "120659.225000", "120700.725000", "120702.225000", "120703.725000", "120705.225000", "120706.725000", "120708.225000", "120709.725000", "120711.225000", "120712.725000", "120714.225000", "120715.725000", "120717.225000", "120718.725000", "120720.225000", "120721.725000", "120723.225000", "120724.725000", "120726.225000", "120727.725000", "120729.225000", "120730.725000", "120732.225000", "120733.725000", "120735.225000", "120736.725000", "120738.225000", "120739.725000", "120741.225000", "120742.725000", "120744.225000", "120745.725000", "120747.225000", "120748.725000", "120750.225000", "120751.725000", "120753.225000", "120754.725000", "120756.225000", "120757.725000", "120759.225000", "120800.725000", "120802.225000", "120803.725000", "120805.225000", "120806.725000", "120808.225000", "120809.725000", "120811.225000", "120812.725000", "120814.225000", "120815.725000", "120817.225000", "120818.725000", "120820.225000", "120821.725000", "120823.225000", "120824.725000", "120826.225000", "120827.725000", "120829.225000", "120830.725000", "120832.225000", "120833.725000", "120835.225000", "120836.725000", "120838.225000", "120839.725000", "120841.225000", "120842.725000", "120844.225000", "120845.725000", "120847.225000", "120848.725000", "120850.225000", "120851.725000", "120853.225000", "120854.725000", "120856.225000", "120857.725000", "120859.225000", "120900.725000", "120902.225000", "120903.725000", "120905.225000", "120906.725000", "120908.225000", "120909.725000", "120911.225000", "120912.725000", "120914.225000", "120915.725000", "120917.225000", "120918.725000", "120920.225000", "120921.725000", "120923.225000", "120924.725000", "120926.225000", "120927.725000", "120929.225000", "120930.725000", "120932.225000", "120933.725000", "120935.225000", "120936.725000", "120938.225000", "120939.725000", "120941.225000", "120942.725000", "120944.225000", "120945.725000", "120947.225000", "120948.725000", "120950.225000", "120951.725000", "120953.225000", "120954.725000", "120956.225000", "120957.725000", "120959.225000", "121000.725000", "121002.225000", "121003.725000", "121005.225000", "121006.725000", "121008.225000", "121009.725000", "121011.225000", "121012.725000", "121014.225000", "121015.725000", "121017.225000", "121018.725000", "121020.225000", "121021.725000", "121023.225000", "121024.725000", "121026.225000", "121027.725000", "121029.225000", "121030.725000", "121032.225000", "121033.725000", "121035.225000", "121036.725000", "121038.225000", "121039.725000", "121041.225000", "121042.725000", "121044.225000", "121045.725000", "121047.225000", "121048.725000", "121050.225000", "121051.725000", "121053.225000", "121054.725000"],
      "ContentTime": ["120635.909000", "120636.905000", "120638.406000", "120639.905000", "120641.404000", "120642.904000", "120644.404000", "120645.904000", "120647.404000", "120648.904000", "120650.404000", "120651.904000", "120653.404000", "120654.905000", "120656.406000", "120657.905000", "120659.404000", "120700.904000", "120702.404000", "120703.904000", "120705.404000", "120706.904000", "120708.404000", "120709.904000", "120711.405000", "120712.905000", "120714.406000", "120715.905000", "120717.404000", "120718.904000", "120720.405000", "120721.904000", "120723.404000", "120724.904000", "120726.405000", "120727.904000", "120729.406000", "120730.905000", "120732.405000", "120733.904000", "120735.404000", "120736.904000", "120738.404000", "120739.904000", "120741.405000", "120742.904000", "120744.405000", "120745.904000", "120747.406000", "120748.905000", "120750.406000", "120751.904000", "120753.404000", "120754.904000", "120756.405000", "120757.904000", "120759.405000", "120800.905000", "120802.405000", "120803.905000", "120805.406000", "120806.905000", "120808.406000", "120809.904000", "120811.405000", "120812.904000", "120814.405000", "120815.904000", "120817.405000", "120818.905000", "120820.405000", "120821.906000", "120823.406000", "120824.905000", "120826.404000", "120827.904000", "120829.405000", "120830.905000", "120832.405000", "120833.905000", "120835.405000", "120836.904000", "120838.405000", "120839.905000", "120841.406000", "120842.905000", "120844.405000", "120845.904000", "120847.405000", "120848.905000", "120850.405000", "120851.905000", "120853.405000", "120854.904000", "120856.406000", "120857.906000", "120859.406000", "120900.905000", "120902.405000", "120903.904000", "120905.405000", "120906.905000", "120908.405000", "120909.904000", "120911.405000", "120912.904000", "120914.406000", "120915.905000", "120917.406000", "120918.904000", "120920.405000", "120921.904000", "120923.405000", "120924.904000", "120926.405000", "120927.904000", "120929.405000", "120930.904000", "120932.406000", "120933.905000", "120935.406000", "120936.905000", "120938.405000", "120939.904000", "120941.405000", "120943.405000", "120946.405000", "120946.408000", "120948.905000", "120948.916000", "120950.406000", "120951.906000", "120953.406000", "120954.904000", "120956.405000", "120957.904000", "120959.405000", "121000.905000", "121002.405000", "121003.904000", "121005.405000", "121006.906000", "121008.406000", "121009.906000", "121011.405000", "121012.905000", "121014.405000", "121015.904000", "121017.405000", "121018.905000", "121020.404000", "121021.904000", "121023.415000", "121024.905000", "121026.406000", "121027.905000", "121029.405000", "121030.904000", "121032.405000", "121033.905000", "121035.405000", "121036.904000", "121038.405000", "121039.904000", "121041.406000", "121042.906000", "121044.406000", "121045.905000", "121047.405000", "121048.905000", "121050.405000", "121051.905000", "121053.405000", "121054.904000", "121056.405000"],
      "InstanceCreationTime": ["120635.909000", "120636.905000", "120638.406000", "120639.905000", "120641.404000", "120642.904000", "120644.404000", "120645.904000", "120647.404000", "120648.904000", "120650.404000", "120651.904000", "120653.404000", "120654.905000", "120656.406000", "120657.905000", "120659.404000", "120700.904000", "120702.404000", "120703.904000", "120705.404000", "120706.904000", "120708.404000", "120709.904000", "120711.405000", "120712.905000", "120714.406000", "120715.905000", "120717.404000", "120718.904000", "120720.405000", "120721.904000", "120723.404000", "120724.904000", "120726.405000", "120727.904000", "120729.406000", "120730.905000", "120732.405000", "120733.904000", "120735.404000", "120736.904000", "120738.404000", "120739.904000", "120741.405000", "120742.904000", "120744.405000", "120745.904000", "120747.406000", "120748.905000", "120750.406000", "120751.904000", "120753.404000", "120754.904000", "120756.405000", "120757.904000", "120759.405000", "120800.905000", "120802.405000", "120803.905000", "120805.406000", "120806.905000", "120808.406000", "120809.904000", "120811.405000", "120812.904000", "120814.405000", "120815.904000", "120817.405000", "120818.905000", "120820.405000", "120821.906000", "120823.406000", "120824.905000", "120826.404000", "120827.904000", "120829.405000", "120830.905000", "120832.405000", "120833.905000", "120835.405000", "120836.904000", "120838.405000", "120839.905000", "120841.406000", "120842.905000", "120844.405000", "120845.904000", "120847.405000", "120848.905000", "120850.405000", "120851.905000", "120853.405000", "120854.904000", "120856.406000", "120857.906000", "120859.406000", "120900.905000", "120902.405000", "120903.904000", "120905.405000", "120906.905000", "120908.405000", "120909.904000", "120911.405000", "120912.904000", "120914.406000", "120915.905000", "120917.406000", "120918.904000", "120920.405000", "120921.904000", "120923.405000", "120924.904000", "120926.405000", "120927.904000", "120929.405000", "120930.904000", "120932.406000", "120933.905000", "120935.406000", "120936.905000", "120938.405000", "120939.904000", "120941.405000", "120943.405000", "120946.405000", "120946.408000", "120948.905000", "120948.916000", "120950.406000", "120951.906000", "120953.406000", "120954.904000", "120956.405000", "120957.904000", "120959.405000", "121000.905000", "121002.405000", "121003.904000", "121005.405000", "121006.906000", "121008.406000", "121009.906000", "121011.405000", "121012.905000", "121014.405000", "121015.904000", "121017.405000", "121018.905000", "121020.404000", "121021.904000", "121023.415000", "121024.905000", "121026.406000", "121027.905000", "121029.405000", "121030.904000", "121032.405000", "121033.905000", "121035.405000", "121036.904000", "121038.405000", "121039.904000", "121041.406000", "121042.906000", "121044.406000", "121045.905000", "121047.405000", "121048.905000", "121050.405000", "121051.905000", "121053.405000", "121054.904000", "121056.405000"],
      "InstanceNumber": [1, 2, 3, 4, 5, 6, 7, 8, 9, 10, 11, 12, 13, 14, 15, 16, 17, 18, 19, 20, 21, 22, 23, 24, 25, 26, 27, 28, 29, 30, 31, 32, 33, 34, 35, 36, 37, 38, 39, 40, 41, 42, 43, 44, 45, 46, 47, 48, 49, 50, 51, 52, 53, 54, 55, 56, 57, 58, 59, 60, 61, 62, 63, 64, 65, 66, 67, 68, 69, 70, 71, 72, 73, 74, 75, 76, 77, 78, 79, 80, 81, 82, 83, 84, 85, 86, 87, 88, 89, 90, 91, 92, 93, 94, 95, 96, 97, 98, 99, 100, 101, 102, 103, 104, 105, 106, 107, 108, 109, 110, 111, 112, 113, 114, 115, 116, 117, 118, 119, 120, 121, 122, 123, 124, 125, 126, 127, 128, 129, 130, 131, 132, 133, 134, 135, 136, 137, 138, 139, 140, 141, 142, 143, 144, 145, 146, 147, 148, 149, 150, 151, 152, 153, 154, 155, 156, 157, 158, 159, 160, 161, 162, 163, 164, 165, 166, 167, 168, 169, 170, 171, 172, 173, 174, 175],
      "LargestImagePixelValue": [2213, 2218, 2222, 2227, 2241, 2228, 2239, 2238, 2234, 2247, 2238, 2240, 2240, 2247, 2238, 2236, 2224, 2230, 2232, 2233, 2223, 2219, 2232, 2232, 2213, 2233, 2234, 2250, 2273, 2244, 2248, 2243, 2266, 2251, 2251, 2237, 2242, 2236, 2261, 2239, 2233, 2245, 2243, 2228, 2235, 2247, 2251, 2232, 2249, 2253, 2246, 2247, 2234, 2251, 2252, 2234, 2240, 2256, 2258, 2240, 2231, 2222, 2231, 2226, 2248, 2236, 2249, 2244, 2232, 2231, 2219, 2206, 2223, 2240, 2207, 2235, 2222, 2231, 2211, 2217, 2232, 2232, 2256, 2242, 2244, 2229, 2225, 2219, 2228, 2220, 2206, 2225, 2219, 2232, 2243, 2244, 2256, 2224, 2238, 2218, 2224, 2227, 2226, 2225, 2205, 2206, 2223, 2209, 2216, 2210, 2197, 2225, 2212, 2227, 2214, 2247, 2228, 2235, 2228, 2247, 2255, 2240, 2235, 2242, 2248, 2236, 2230, 2238, 2234, 2236, 2229, 2236, 2224, 2209, 2228, 2220, 2235, 2230, 2240, 2233, 2238, 2242, 2247, 2236, 2257, 2235, 2257, 2234, 2215, 2220, 2224, 2214, 2231, 2212, 2225, 2206, 2208, 2215, 2238, 2224, 2249, 2245, 2241, 2243, 2231, 2233, 2231, 2225, 2231, 2243, 2233, 2218, 2229, 2235, 2230],
      "WindowCenter": [628.0, 627.0, 626.0, 627.0, 627.0, 627.0, 628.0, 628.0, 628.0, 627.0, 627.0, 627.0, 627.0, 626.0, 626.0, 624.0, 624.0, 625.0, 626.0, 625.0, 625.0, 624.0, 624.0, 624.0, 626.0, 627.0, 627.0, 627.0, 627.0, 628.0, 628.0, 627.0, 627.0, 627.0, 628.0, 629.0, 628.0, 626.0, 625.0, 624.0, 623.0, 623.0, 624.0, 624.0, 623.0, 624.0, 624.0, 625.0, 625.0, 626.0, 626.0, 626.0, 627.0, 628.0, 629.0, 629.0, 629.0, 630.0, 630.0, 629.0, 627.0, 627.0, 626.0, 625.0, 626.0, 627.0, 627.0, 626.0, 626.0, 625.0, 625.0, 625.0, 626.0, 627.0, 628.0, 628.0, 628.0, 628.0, 628.0, 626.0, 626.0, 627.0, 628.0, 628.0, 626.0, 625.0, 624.0, 623.0, 623.0, 623.0, 623.0, 624.0, 624.0, 626.0, 628.0, 629.0, 628.0, 627.0, 626.0, 624.0, 625.0, 625.0, 624.0, 623.0, 621.0, 620.0, 621.0, 623.0, 624.0, 624.0, 624.0, 624.0, 624.0, 624.0, 625.0, 626.0, 626.0, 627.0, 627.0, 628.0, 630.0, 630.0, 628.0, 627.0, 625.0, 624.0, 623.0, 623.0, 622.0, 622.0, 622.0, 624.0, 623.0, 623.0, 624.0, 626.0, 627.0, 627.0, 626.0, 625.0, 624.0, 625.0, 626.0, 628.0, 628.0, 627.0, 626.0, 624.0, 623.0, 622.0, 623.0, 623.0, 623.0, 622.0, 622.0, 622.0, 622.0, 623.0, 624.0, 625.0, 626.0, 627.0, 629.0, 629.0, 628.0, 626.0, 625.0, 625.0, 626.0, 627.0, 626.0, 625.0, 623.0, 623.0, 623.0],
      "WindowWidth": [1344.0, 1341.0, 1340.0, 1342.0, 1343.0, 1344.0, 1344.0, 1344.0, 1344.0, 1343.0, 1344.0, 1343.0, 1343.0, 1341.0, 1340.0, 1337.0, 1337.0, 1339.0, 1341.0, 1339.0, 1337.0, 1336.0, 1337.0, 1337.0, 1340.0, 1343.0, 1344.0, 1344.0, 1344.0, 1346.0, 1346.0, 1343.0, 1344.0, 1344.0, 1346.0, 1347.0, 1345.0, 1340.0, 1338.0, 1337.0, 1333.0, 1333.0, 1335.0, 1335.0, 1333.0, 1335.0, 1337.0, 1338.0, 1339.0, 1340.0, 1340.0, 1341.0, 1343.0, 1346.0, 1348.0, 1348.0, 1349.0, 1350.0, 1351.0, 1348.0, 1344.0, 1342.0, 1340.0, 1339.0, 1340.0, 1343.0, 1342.0, 1341.0, 1339.0, 1338.0, 1338.0, 1339.0, 1340.0, 1343.0, 1345.0, 1346.0, 1345.0, 1346.0, 1347.0, 1341.0, 1341.0, 1342.0, 1345.0, 1345.0, 1342.0, 1338.0, 1335.0, 1334.0, 1333.0, 1333.0, 1334.0, 1335.0, 1336.0, 1340.0, 1344.0, 1348.0, 1346.0, 1342.0, 1340.0, 1337.0, 1339.0, 1339.0, 1337.0, 1332.0, 1328.0, 1327.0, 1330.0, 1333.0, 1334.0, 1336.0, 1336.0, 1335.0, 1335.0, 1335.0, 1338.0, 1339.0, 1341.0, 1342.0, 1344.0, 1346.0, 1351.0, 1350.0, 1347.0, 1342.0, 1338.0, 1335.0, 1334.0, 1333.0, 1332.0, 1331.0, 1331.0, 1335.0, 1334.0, 1334.0, 1337.0, 1341.0, 1343.0, 1344.0, 1340.0, 1338.0, 1337.0, 1337.0, 1341.0, 1345.0, 1346.0, 1344.0, 1341.0, 1336.0, 1333.0, 1332.0, 1333.0, 1333.0, 1333.0, 1332.0, 1332.0, 1331.0, 1331.0, 1334.0, 1336.0, 1338.0, 1341.0, 1344.0, 1347.0, 1347.0, 1344.0, 1340.0, 1338.0, 1338.0, 1339.0, 1342.0, 1341.0, 1338.0, 1333.0, 1332.0, 1332.0]
    },
    "slices": {}
  }
}