{
  "AcquisitionMatrixPE": 74,
  "AcquisitionNumber": 1,
  "AcquisitionTime": "16:37:56.615000",
  "BandwidthPerPixelPhaseEncode": 25.497,
  "BaseResolution": 74,
  "BodyPartExamined": "BRAIN",
  "CoilCombinationMethod": "Sum of Squares",
  "ConsistencyInfo": "N4_VE11C_LATEST_20160120",
  "ConversionSoftware": "dcm2niix",
  "ConversionSoftwareVersion": "v1.0.20220720",
  "DerivedVendorReportedEchoSpacing": 0.000530004,
  "DeviceSerialNumber": "66018",
  "DwellTime": 3e-06,
  "EchoTime": 0.028,
  "EchoTrainLength": 74,
  "EffectiveEchoSpacing": 0.000530004,
  "FlipAngle": 80,
  "HeudiconvVersion": "0.12.2",
  "ImageOrientationPatientDICOM": [0.999345, 0.0358389, 0.00496211, -0.0345487, 0.985975, -0.163277],
  "ImageOrientationText": "Tra>Cor(-9.4)>Sag(0.6)",
  "ImageType": [
    "ORIGINAL",
    "PRIMARY",
    "M",
    "ND",
    "MOSAIC"
],
  "ImagingFrequency": 123.168,
  "InPlanePhaseEncodingDirectionDICOM": "COL",
  "InstitutionAddress": "Stadium 1952,Princeton,NJ,US,08544",
  "InstitutionName": "Princeton University",
  "InstitutionalDepartmentName": "NeuroScience",
  "MRAcquisitionType": "2D",
  "MagneticFieldStrength": 3,
  "Manufacturer": "Siemens",
  "ManufacturersModelName": "Prisma",
  "Modality": "MR",
  "MultibandAccelerationFactor": 2,
  "NonlinearGradientCorrection": false,
  "PartialFourier": 1,
  "PatientPosition": "HFS",
  "PercentPhaseFOV": 100,
  "PercentSampling": 100,
  "PhaseEncodingDirection": "j-",
  "PhaseEncodingSteps": 74,
  "PhaseResolution": 1,
  "PixelBandwidth": 2250,
  "ProcedureStepDescription": "NormaL_Robert^Tangrams",
  "ProtocolName": "func_task-PreExposure_run-01",
  "PulseSequenceDetails": "%SiemensSeq%\\ep2d_bold",
  "ReceiveCoilActiveElements": "HC1-7",
  "ReceiveCoilName": "HeadNeck_64",
  "ReconMatrixPE": 74,
  "RefLinesPE": 12,
  "RepetitionTime": 1.5,
  "SAR": 0.0638046,
  "ScanOptions": "FS",
  "ScanningSequence": "EP",
  "SequenceName": "*epfid2d1_74",
  "SequenceVariant": "SK",
  "SeriesDescription": "func_task-PreExposure_run-01",
  "SeriesNumber": 6,
  "ShimSetting": [740, 519, 2061, 481, 2, -3, 90, 90],
  "SliceThickness": 3,
  "SliceTiming": [0.7075, 0, 0.7725, 0.065, 0.835, 0.1275, 0.9, 0.1925, 0.965, 0.2575, 1.03, 0.3225, 1.0925, 0.385, 1.1575, 0.45, 1.2225, 0.515, 1.2875, 0.5775, 1.35, 0.6425, 1.415, 0.7075, 0, 0.7725, 0.065, 0.835, 0.1275, 0.9, 0.1925, 0.965, 0.2575, 1.03, 0.3225, 1.0925, 0.385, 1.1575, 0.45, 1.2225, 0.515, 1.2875, 0.5775, 1.35, 0.6425, 1.415],
  "SoftwareVersions": "syngo MR E11",
  "SpacingBetweenSlices": 3,
  "StationName": "AWP66018",
  "TaskName": "PreExposure",
  "TotalReadoutTime": 0.0386903,
  "TxRefAmp": 247.982,
  "dcmmeta_affine": [
    [-2.9980356693267822, -0.10364609956741333, 0.03223255276679993, 114.30694580078125],
    [-0.10751673579216003, 2.95792555809021, -0.48899537324905396, -86.20909118652344],
    [0.014886343851685524, 0.4898303747177124, 2.9597034454345703, -79.31864166259766],
    [0.0, 0.0, 0.0, 1.0]
],
  "dcmmeta_reorient_transform": [
    [0.0, -1.0, 0.0, 73.0],
    [1.0, 0.0, 0.0, 0.0],
    [0.0, 0.0, 1.0, 0.0],
    [0.0, 0.0, 0.0, 1.0]
],
  "dcmmeta_shape": [74, 74, 46, 174],
  "dcmmeta_slice_dim": 2,
  "dcmmeta_version": 0.6,
  "global": {
    "const": {
      "AcquisitionMatrix": [74, 0, 0, 74],
      "AngioFlag": "N",
      "BitsAllocated": 16,
      "BitsStored": 12,
      "BodyPartExamined": "BRAIN",
      "Columns": 518,
      "EchoNumbers": 1,
      "EchoTime": 28.0,
      "EchoTrainLength": 74,
      "FlipAngle": 80.0,
      "HighBit": 11,
      "ImageOrientationPatient": [0.99934526055232, 0.03583891221799, 0.00496211473584, -0.0345487005219, 0.98597519053201, -0.1632767924342],
      "ImagePositionPatient": [-749.29528659133, -810.24766879866, 61.876551477159],
      "ImageType": [
        "ORIGINAL",
        "PRIMARY",
        "M",
        "ND",
        "MOSAIC"
],
      "ImagedNucleus": "1H",
      "ImagingFrequency": 123.167629,
      "InPlanePhaseEncodingDirection": "COL",
      "MRAcquisitionType": "2D",
      "MagneticFieldStrength": 3.0,
      "Manufacturer": "SIEMENS",
      "ManufacturerModelName": "Prisma",
      "Modality": "MR",
      "NumberOfAverages": 1.0,
      "NumberOfPhaseEncodingSteps": 74,
      "PercentPhaseFieldOfView": 100.0,
      "PercentSampling": 100.0,
      "PerformedProcedureStepStartTime": "160223.324000",
      "PhotometricInterpretation": "MONOCHROME2",
      "PixelBandwidth": 2250.0,
      "PixelRepresentation": 0,
      "PixelSpacing": [3.0, 3.0],
      "ProtocolName": "func_task-PreExposure_run-01",
      "RepetitionTime": 1500.0,
      "Rows": 518,
      "SAR": 0.06380458733123,
      "SamplesPerPixel": 1,
      "ScanOptions": "FS",
      "ScanningSequence": "EP",
      "SequenceName": "*epfid2d1_74",
      "SequenceVariant": "SK",
      "SeriesDescription": "func_task-PreExposure_run-01",
      "SeriesNumber": 6,
      "SeriesTime": "163758.474000",
      "SliceLocation": -62.973135907609,
      "SliceThickness": 3.0,
      "SmallestImagePixelValue": 0,
      "SoftwareVersions": "syngo MR E11",
      "SpacingBetweenSlices": 3.0000000260482,
      "SpecificCharacterSet": "ISO_IR 100",
      "StudyID": "1",
      "StudyTime": "160223.261000",
      "TransmitCoilName": "Body",
      "VariableFlipAngleFlag": "N",
      "WindowCenterWidthExplanation": "Algo1",
      "dBdt": 0.0},
    "slices": {}
  },
  "time": {
    "samples": {
      "AcquisitionNumber": [1, 2, 3, 4, 5, 6, 7, 8, 9, 10, 11, 12, 13, 14, 15, 16, 17, 18, 19, 20, 21, 22, 23, 24, 25, 26, 27, 28, 29, 30, 31, 32, 33, 34, 35, 36, 37, 38, 39, 40, 41, 42, 43, 44, 45, 46, 47, 48, 49, 50, 51, 52, 53, 54, 55, 56, 57, 58, 59, 60, 61, 62, 63, 64, 65, 66, 67, 68, 69, 70, 71, 72, 73, 74, 75, 76, 77, 78, 79, 80, 81, 82, 83, 84, 85, 86, 87, 88, 89, 90, 91, 92, 93, 94, 95, 96, 97, 98, 99, 100, 101, 102, 103, 104, 105, 106, 107, 108, 109, 110, 111, 112, 113, 114, 115, 116, 117, 118, 119, 120, 121, 122, 123, 124, 125, 126, 127, 128, 129, 130, 131, 132, 133, 134, 135, 136, 137, 138, 139, 140, 141, 142, 143, 144, 145, 146, 147, 148, 149, 150, 151, 152, 153, 154, 155, 156, 157, 158, 159, 160, 161, 162, 163, 164, 165, 166, 167, 168, 169, 170, 171, 172, 173, 174],
      "AcquisitionTime": ["163756.615000", "163758.115000", "163759.615000", "163801.115000", "163802.615000", "163804.115000", "163805.615000", "163807.115000", "163808.615000", "163810.115000", "163811.615000", "163813.115000", "163814.615000", "163816.115000", "163817.615000", "163819.115000", "163820.615000", "163822.115000", "163823.615000", "163825.115000", "163826.615000", "163828.115000", "163829.615000", "163831.115000", "163832.615000", "163834.115000", "163835.615000", "163837.115000", "163838.615000", "163840.115000", "163841.615000", "163843.115000", "163844.615000", "163846.115000", "163847.615000", "163849.115000", "163850.615000", "163852.115000", "163853.615000", "163855.115000", "163856.615000", "163858.115000", "163859.615000", "163901.115000", "163902.615000", "163904.115000", "163905.615000", "163907.115000", "163908.615000", "163910.115000", "163911.615000", "163913.115000", "163914.615000", "163916.115000", "163917.615000", "163919.115000", "163920.615000", "163922.115000", "163923.615000", "163925.115000", "163926.615000", "163928.115000", "163929.615000", "163931.115000", "163932.615000", "163934.115000", "163935.615000", "163937.115000", "163938.615000", "163940.115000", "163941.615000", "163943.115000", "163944.615000", "163946.115000", "163947.615000", "163949.115000", "163950.615000", "163952.115000", "163953.615000", "163955.115000", "163956.615000", "163958.115000", "163959.615000", "164001.115000", "164002.615000", "164004.115000", "164005.615000", "164007.115000", "164008.615000", "164010.115000", "164011.615000", "164013.115000", "164014.615000", "164016.115000", "164017.615000", "164019.115000", "164020.615000", "164022.115000", "164023.615000", "164025.115000", "164026.615000", "164028.115000", "164029.615000", "164031.115000", "164032.615000", "164034.115000", "164035.615000", "164037.115000", "164038.615000", "164040.115000", "164041.615000", "164043.115000", "164044.615000", "164046.115000", "164047.615000", "164049.115000", "164050.615000", "164052.115000", "164053.615000", "164055.115000", "164056.615000", "164058.115000", "164059.615000", "164101.115000", "164102.615000", "164104.115000", "164105.615000", "164107.115000", "164108.615000", "164110.115000", "164111.615000", "164113.115000", "164114.615000", "164116.115000", "164117.615000", "164119.115000", "164120.615000", "164122.115000", "164123.615000", "164125.115000", "164126.615000", "164128.115000", "164129.615000", "164131.115000", "164132.615000", "164134.115000", "164135.615000", "164137.115000", "164138.615000", "164140.115000", "164141.615000", "164143.115000", "164144.615000", "164146.115000", "164147.615000", "164149.115000", "164150.615000", "164152.115000", "164153.615000", "164155.115000", "164156.615000", "164158.115000", "164159.615000", "164201.115000", "164202.615000", "164204.115000", "164205.615000", "164207.115000", "164208.615000", "164210.115000", "164211.615000", "164213.115000", "164214.615000", "164216.115000"],
      "ContentTime": ["163758.478000", "163759.972000", "163801.472000", "163802.972000", "163804.472000", "163805.972000", "163807.472000", "163808.972000", "163810.472000", "163811.974000", "163813.474000", "163814.973000", "163816.472000", "163817.973000", "163819.473000", "163820.973000", "163822.472000", "163823.972000", "163825.473000", "163826.972000", "163828.473000", "163829.974000", "163831.473000", "163832.972000", "163834.472000", "163835.972000", "163837.472000", "163838.972000", "163840.473000", "163841.973000", "163843.473000", "163844.972000", "163846.474000", "163847.973000", "163849.473000", "163850.974000", "163852.472000", "163853.973000", "163855.472000", "163856.974000", "163858.472000", "163859.972000", "163901.472000", "163902.972000", "163904.473000", "163905.974000", "163907.473000", "163908.973000", "163910.473000", "163911.973000", "163913.473000", "163914.972000", "163916.472000", "163917.972000", "163919.472000", "163920.973000", "163922.473000", "163923.974000", "163925.472000", "163926.973000", "163928.472000", "163929.973000", "163931.473000", "163932.972000", "163934.472000", "163935.972000", "163937.472000", "163938.973000", "163940.473000", "163941.974000", "163943.473000", "163944.973000", "163946.472000", "163947.973000", "163949.472000", "163950.972000", "163952.472000", "163953.972000", "163955.473000", "163956.974000", "163958.474000", "163959.974000", "164001.473000", "164002.973000", "164004.473000", "164005.972000", "164007.472000", "164008.972000", "164010.473000", "164011.973000", "164013.473000", "164014.974000", "164016.473000", "164017.972000", "164019.473000", "164020.973000", "164022.472000", "164023.973000", "164025.472000", "164026.973000", "164028.473000", "164029.973000", "164031.474000", "164032.973000", "164034.473000", "164035.972000", "164037.473000", "164038.972000", "164040.472000", "164041.973000", "164043.472000", "164044.973000", "164046.472000", "164047.972000", "164049.474000", "164050.974000", "164052.473000", "164053.973000", "164055.473000", "164056.972000", "164058.473000", "164059.972000", "164101.473000", "164102.973000", "164104.473000", "164105.974000", "164107.474000", "164108.974000", "164110.473000", "164111.973000", "164113.473000", "164114.972000", "164116.473000", "164117.972000", "164119.473000", "164120.973000", "164122.472000", "164123.974000", "164125.473000", "164126.973000", "164128.472000", "164129.972000", "164131.473000", "164132.972000", "164134.472000", "164135.972000", "164137.472000", "164138.973000", "164140.472000", "164141.973000", "164143.473000", "164144.974000", "164146.473000", "164147.973000", "164149.473000", "164150.973000", "164152.472000", "164153.973000", "164155.472000", "164156.973000", "164158.474000", "164159.974000", "164201.474000", "164202.973000", "164204.472000", "164205.972000", "164207.473000", "164208.973000", "164210.473000", "164211.973000", "164213.472000", "164214.972000", "164216.474000", "164217.857000"],
      "InstanceCreationTime": ["163758.478000", "163759.972000", "163801.472000", "163802.972000", "163804.472000", "163805.972000", "163807.472000", "163808.972000", "163810.472000", "163811.974000", "163813.474000", "163814.973000", "163816.472000", "163817.973000", "163819.473000", "163820.973000", "163822.472000", "163823.972000", "163825.473000", "163826.972000", "163828.473000", "163829.974000", "163831.473000", "163832.972000", "163834.472000", "163835.972000", "163837.472000", "163838.972000", "163840.473000", "163841.973000", "163843.473000", "163844.972000", "163846.474000", "163847.973000", "163849.473000", "163850.974000", "163852.472000", "163853.973000", "163855.472000", "163856.974000", "163858.472000", "163859.972000", "163901.472000", "163902.972000", "163904.473000", "163905.974000", "163907.473000", "163908.973000", "163910.473000", "163911.973000", "163913.473000", "163914.972000", "163916.472000", "163917.972000", "163919.472000", "163920.973000", "163922.473000", "163923.974000", "163925.472000", "163926.973000", "163928.472000", "163929.973000", "163931.473000", "163932.972000", "163934.472000", "163935.972000", "163937.472000", "163938.973000", "163940.473000", "163941.974000", "163943.473000", "163944.973000", "163946.472000", "163947.973000", "163949.472000", "163950.972000", "163952.472000", "163953.972000", "163955.473000", "163956.974000", "163958.474000", "163959.974000", "164001.473000", "164002.973000", "164004.473000", "164005.972000", "164007.472000", "164008.972000", "164010.473000", "164011.973000", "164013.473000", "164014.974000", "164016.473000", "164017.972000", "164019.473000", "164020.973000", "164022.472000", "164023.973000", "164025.472000", "164026.973000", "164028.473000", "164029.973000", "164031.474000", "164032.973000", "164034.473000", "164035.972000", "164037.473000", "164038.972000", "164040.472000", "164041.973000", "164043.472000", "164044.973000", "164046.472000", "164047.972000", "164049.474000", "164050.974000", "164052.473000", "164053.973000", "164055.473000", "164056.972000", "164058.473000", "164059.972000", "164101.473000", "164102.973000", "164104.473000", "164105.974000", "164107.474000", "164108.974000", "164110.473000", "164111.973000", "164113.473000", "164114.972000", "164116.473000", "164117.972000", "164119.473000", "164120.973000", "164122.472000", "164123.974000", "164125.473000", "164126.973000", "164128.472000", "164129.972000", "164131.473000", "164132.972000", "164134.472000", "164135.972000", "164137.472000", "164138.973000", "164140.472000", "164141.973000", "164143.473000", "164144.974000", "164146.473000", "164147.973000", "164149.473000", "164150.973000", "164152.472000", "164153.973000", "164155.472000", "164156.973000", "164158.474000", "164159.974000", "164201.474000", "164202.973000", "164204.472000", "164205.972000", "164207.473000", "164208.973000", "164210.473000", "164211.973000", "164213.472000", "164214.972000", "164216.474000", "164217.857000"],
      "InstanceNumber": [1, 2, 3, 4, 5, 6, 7, 8, 9, 10, 11, 12, 13, 14, 15, 16, 17, 18, 19, 20, 21, 22, 23, 24, 25, 26, 27, 28, 29, 30, 31, 32, 33, 34, 35, 36, 37, 38, 39, 40, 41, 42, 43, 44, 45, 46, 47, 48, 49, 50, 51, 52, 53, 54, 55, 56, 57, 58, 59, 60, 61, 62, 63, 64, 65, 66, 67, 68, 69, 70, 71, 72, 73, 74, 75, 76, 77, 78, 79, 80, 81, 82, 83, 84, 85, 86, 87, 88, 89, 90, 91, 92, 93, 94, 95, 96, 97, 98, 99, 100, 101, 102, 103, 104, 105, 106, 107, 108, 109, 110, 111, 112, 113, 114, 115, 116, 117, 118, 119, 120, 121, 122, 123, 124, 125, 126, 127, 128, 129, 130, 131, 132, 133, 134, 135, 136, 137, 138, 139, 140, 141, 142, 143, 144, 145, 146, 147, 148, 149, 150, 151, 152, 153, 154, 155, 156, 157, 158, 159, 160, 161, 162, 163, 164, 165, 166, 167, 168, 169, 170, 171, 172, 173, 174],
      "LargestImagePixelValue": [2498, 2501, 2456, 2496, 2500, 2502, 2507, 2490, 2494, 2458, 2466, 2463, 2487, 2492, 2490, 2503, 2484, 2502, 2497, 2515, 2532, 2524, 2514, 2468, 2481, 2453, 2457, 2466, 2481, 2497, 2501, 2501, 2505, 2497, 2483, 2474, 2460, 2457, 2469, 2472, 2472, 2442, 2478, 2490, 2489, 2463, 2449, 2464, 2448, 2461, 2476, 2481, 2493, 2479, 2500, 2494, 2499, 2491, 2455, 2447, 2447, 2468, 2472, 2458, 2467, 2461, 2481, 2468, 2474, 2482, 2454, 2483, 2486, 2499, 2469, 2489, 2478, 2492, 2455, 2455, 2465, 2486, 2449, 2475, 2482, 2491, 2485, 2476, 2468, 2463, 2444, 2432, 2459, 2457, 2460, 2467, 2450, 2477, 2470, 2455, 2433, 2444, 2464, 2457, 2474, 2475, 2496, 2480, 2473, 2432, 2436, 2443, 2460, 2499, 2501, 2511, 2490, 2498, 2474, 2443, 2471, 2471, 2494, 2462, 2468, 2456, 2461, 2478, 2478, 2504, 2477, 2458, 2442, 2445, 2486, 2478, 2498, 2486, 2463, 2442, 2428, 2433, 2441, 2474, 2450, 2473, 2470, 2493, 2486, 2482, 2473, 2439, 2457, 2432, 2453, 2473, 2471, 2471, 2469, 2479, 2465, 2475, 2469, 2457, 2476, 2466, 2466, 2454, 2466, 2437, 2445, 2447, 2423, 2438],
      "WindowCenter": [695.0, 694.0, 693.0, 694.0, 695.0, 695.0, 694.0, 694.0, 694.0, 693.0, 694.0, 693.0, 693.0, 693.0, 694.0, 694.0, 693.0, 694.0, 694.0, 695.0, 696.0, 696.0, 695.0, 693.0, 692.0, 691.0, 692.0, 692.0, 693.0, 694.0, 694.0, 694.0, 694.0, 693.0, 693.0, 694.0, 693.0, 694.0, 693.0, 693.0, 693.0, 692.0, 694.0, 696.0, 695.0, 694.0, 693.0, 693.0, 692.0, 692.0, 692.0, 692.0, 693.0, 693.0, 694.0, 694.0, 694.0, 694.0, 693.0, 693.0, 693.0, 693.0, 693.0, 693.0, 693.0, 693.0, 694.0, 694.0, 694.0, 693.0, 693.0, 692.0, 693.0, 693.0, 693.0, 693.0, 693.0, 693.0, 692.0, 692.0, 693.0, 694.0, 693.0, 694.0, 693.0, 693.0, 693.0, 693.0, 693.0, 693.0, 693.0, 693.0, 693.0, 693.0, 693.0, 692.0, 693.0, 693.0, 693.0, 694.0, 693.0, 693.0, 693.0, 693.0, 693.0, 693.0, 695.0, 695.0, 695.0, 692.0, 692.0, 691.0, 692.0, 694.0, 695.0, 695.0, 694.0, 693.0, 692.0, 692.0, 693.0, 694.0, 694.0, 694.0, 694.0, 693.0, 693.0, 694.0, 694.0, 694.0, 694.0, 694.0, 693.0, 693.0, 695.0, 695.0, 695.0, 694.0, 693.0, 692.0, 693.0, 693.0, 694.0, 694.0, 694.0, 694.0, 693.0, 694.0, 695.0, 696.0, 695.0, 694.0, 693.0, 693.0, 693.0, 693.0, 693.0, 694.0, 694.0, 696.0, 695.0, 696.0, 694.0, 693.0, 693.0, 694.0, 693.0, 693.0, 693.0, 693.0, 693.0, 693.0, 694.0, 695.0],
      "WindowWidth": [1505.0, 1503.0, 1501.0, 1504.0, 1505.0, 1505.0, 1504.0, 1503.0, 1502.0, 1501.0, 1502.0, 1501.0, 1502.0, 1502.0, 1503.0, 1502.0, 1501.0, 1502.0, 1502.0, 1506.0, 1509.0, 1509.0, 1505.0, 1500.0, 1499.0, 1496.0, 1498.0, 1499.0, 1502.0, 1504.0, 1504.0, 1504.0, 1504.0, 1502.0, 1502.0, 1502.0, 1502.0, 1503.0, 1501.0, 1501.0, 1499.0, 1499.0, 1504.0, 1507.0, 1505.0, 1504.0, 1502.0, 1501.0, 1498.0, 1499.0, 1498.0, 1498.0, 1500.0, 1502.0, 1504.0, 1503.0, 1504.0, 1502.0, 1501.0, 1501.0, 1501.0, 1501.0, 1501.0, 1501.0, 1501.0, 1501.0, 1502.0, 1502.0, 1503.0, 1501.0, 1500.0, 1499.0, 1500.0, 1501.0, 1501.0, 1502.0, 1502.0, 1501.0, 1498.0, 1499.0, 1501.0, 1502.0, 1502.0, 1503.0, 1501.0, 1501.0, 1500.0, 1501.0, 1500.0, 1501.0, 1501.0, 1501.0, 1502.0, 1500.0, 1500.0, 1498.0, 1499.0, 1500.0, 1501.0, 1502.0, 1501.0, 1501.0, 1500.0, 1500.0, 1500.0, 1501.0, 1506.0, 1507.0, 1505.0, 1499.0, 1497.0, 1496.0, 1499.0, 1503.0, 1505.0, 1507.0, 1502.0, 1500.0, 1498.0, 1498.0, 1500.0, 1502.0, 1504.0, 1503.0, 1503.0, 1501.0, 1502.0, 1502.0, 1503.0, 1504.0, 1504.0, 1502.0, 1500.0, 1501.0, 1505.0, 1506.0, 1506.0, 1502.0, 1500.0, 1498.0, 1500.0, 1501.0, 1503.0, 1503.0, 1502.0, 1502.0, 1501.0, 1503.0, 1505.0, 1507.0, 1506.0, 1503.0, 1502.0, 1500.0, 1501.0, 1501.0, 1501.0, 1502.0, 1503.0, 1507.0, 1507.0, 1507.0, 1502.0, 1501.0, 1500.0, 1502.0, 1501.0, 1502.0, 1501.0, 1500.0, 1500.0, 1500.0, 1502.0, 1504.0]
    },
    "slices": {}
  }
}