{
  "AcquisitionMatrixPE": 74,
  "AcquisitionNumber": 1,
  "AcquisitionTime": "18:05:41.750000",
  "BandwidthPerPixelPhaseEncode": 25.497,
  "BaseResolution": 74,
  "BodyPartExamined": "BRAIN",
  "CoilCombinationMethod": "Sum of Squares",
  "ConsistencyInfo": "N4_VE11C_LATEST_20160120",
  "ConversionSoftware": "dcm2niix",
  "ConversionSoftwareVersion": "v1.0.20220720",
  "DerivedVendorReportedEchoSpacing": 0.000530004,
  "DeviceSerialNumber": "66018",
  "DwellTime": 3e-06,
  "EchoTime": 0.028,
  "EchoTrainLength": 74,
  "EffectiveEchoSpacing": 0.000530004,
  "FlipAngle": 80,
  "HeudiconvVersion": "0.12.2",
  "ImageOrientationPatientDICOM": [0.999345, 0.0358389, 0.00496211, -0.0345487, 0.985975, -0.163277],
  "ImageOrientationText": "Tra>Cor(-9.4)>Sag(0.6)",
  "ImageType": [
    "ORIGINAL",
    "PRIMARY",
    "M",
    "ND",
    "MOSAIC"
],
  "ImagingFrequency": 123.168,
  "InPlanePhaseEncodingDirectionDICOM": "COL",
  "InstitutionAddress": "Stadium 1952,Princeton,NJ,US,08544",
  "InstitutionName": "Princeton University",
  "InstitutionalDepartmentName": "NeuroScience",
  "MRAcquisitionType": "2D",
  "MagneticFieldStrength": 3,
  "Manufacturer": "Siemens",
  "ManufacturersModelName": "Prisma",
  "Modality": "MR",
  "MultibandAccelerationFactor": 2,
  "NonlinearGradientCorrection": false,
  "PartialFourier": 1,
  "PatientPosition": "HFS",
  "PercentPhaseFOV": 100,
  "PercentSampling": 100,
  "PhaseEncodingDirection": "j-",
  "PhaseEncodingSteps": 74,
  "PhaseResolution": 1,
  "PixelBandwidth": 2250,
  "ProcedureStepDescription": "NormaL_Robert^Tangrams",
  "ProtocolName": "func_task-PostExposure_run-01",
  "PulseSequenceDetails": "%SiemensSeq%\\ep2d_bold",
  "ReceiveCoilActiveElements": "HC1-7",
  "ReceiveCoilName": "HeadNeck_64",
  "ReconMatrixPE": 74,
  "RefLinesPE": 12,
  "RepetitionTime": 1.5,
  "SAR": 0.0637802,
  "ScanOptions": "FS",
  "ScanningSequence": "EP",
  "SequenceName": "*epfid2d1_74",
  "SequenceVariant": "SK",
  "SeriesDescription": "func_task-PostExposure_run-01",
  "SeriesNumber": 15,
  "ShimSetting": [740, 519, 2061, 481, 2, -3, 90, 90],
  "SliceThickness": 3,
  "SliceTiming": [0.7075, 0, 0.7725, 0.065, 0.8375, 0.13, 0.9, 0.1925, 0.965, 0.2575, 1.03, 0.3225, 1.095, 0.3875, 1.1575, 0.45, 1.2225, 0.515, 1.2875, 0.58, 1.3525, 0.645, 1.415, 0.7075, 0, 0.7725, 0.065, 0.8375, 0.13, 0.9, 0.1925, 0.965, 0.2575, 1.03, 0.3225, 1.095, 0.3875, 1.1575, 0.45, 1.2225, 0.515, 1.2875, 0.58, 1.3525, 0.645, 1.415],
  "SoftwareVersions": "syngo MR E11",
  "SpacingBetweenSlices": 3,
  "StationName": "AWP66018",
  "TaskName": "PostExposure",
  "TotalReadoutTime": 0.0386903,
  "TxRefAmp": 247.982,
  "dcmmeta_affine": [
    [-2.9980356693267822, -0.10364609956741333, 0.03223255276679993, 114.30694580078125],
    [-0.10751673579216003, 2.95792555809021, -0.48899537324905396, -86.20909118652344],
    [0.014886343851685524, 0.4898303747177124, 2.9597034454345703, -79.31864166259766],
    [0.0, 0.0, 0.0, 1.0]
],
  "dcmmeta_reorient_transform": [
    [0.0, -1.0, 0.0, 73.0],
    [1.0, 0.0, 0.0, 0.0],
    [0.0, 0.0, 1.0, 0.0],
    [0.0, 0.0, 0.0, 1.0]
],
  "dcmmeta_shape": [74, 74, 46, 168],
  "dcmmeta_slice_dim": 2,
  "dcmmeta_version": 0.6,
  "global": {
    "const": {
      "AcquisitionMatrix": [74, 0, 0, 74],
      "AngioFlag": "N",
      "BitsAllocated": 16,
      "BitsStored": 12,
      "BodyPartExamined": "BRAIN",
      "Columns": 518,
      "EchoNumbers": 1,
      "EchoTime": 28.0,
      "EchoTrainLength": 74,
      "FlipAngle": 80.0,
      "HighBit": 11,
      "ImageOrientationPatient": [0.99934526055232, 0.03583891221799, 0.00496211473584, -0.0345487005219, 0.98597519053201, -0.1632767924342],
      "ImagePositionPatient": [-749.29528659133, -810.24766879866, 61.876551477159],
      "ImageType": [
        "ORIGINAL",
        "PRIMARY",
        "M",
        "ND",
        "MOSAIC"
],
      "ImagedNucleus": "1H",
      "ImagingFrequency": 123.16765,
      "InPlanePhaseEncodingDirection": "COL",
      "MRAcquisitionType": "2D",
      "MagneticFieldStrength": 3.0,
      "Manufacturer": "SIEMENS",
      "ManufacturerModelName": "Prisma",
      "Modality": "MR",
      "NumberOfAverages": 1.0,
      "NumberOfPhaseEncodingSteps": 74,
      "PercentPhaseFieldOfView": 100.0,
      "PercentSampling": 100.0,
      "PerformedProcedureStepStartTime": "160223.324000",
      "PhotometricInterpretation": "MONOCHROME2",
      "PixelBandwidth": 2250.0,
      "PixelRepresentation": 0,
      "PixelSpacing": [3.0, 3.0],
      "ProtocolName": "func_task-PostExposure_run-01",
      "RepetitionTime": 1500.0,
      "Rows": 518,
      "SAR": 0.06378020484168,
      "SamplesPerPixel": 1,
      "ScanOptions": "FS",
      "ScanningSequence": "EP",
      "SequenceName": "*epfid2d1_74",
      "SequenceVariant": "SK",
      "SeriesDescription": "func_task-PostExposure_run-01",
      "SeriesNumber": 15,
      "SeriesTime": "180544.240000",
      "SliceLocation": -62.973135907609,
      "SliceThickness": 3.0,
      "SmallestImagePixelValue": 0,
      "SoftwareVersions": "syngo MR E11",
      "SpacingBetweenSlices": 3.0000000260482,
      "SpecificCharacterSet": "ISO_IR 100",
      "StudyID": "1",
      "StudyTime": "160223.261000",
      "TransmitCoilName": "Body",
      "VariableFlipAngleFlag": "N",
      "WindowCenterWidthExplanation": "Algo1",
      "dBdt": 0.0},
    "slices": {}
  },
  "time": {
    "samples": {
      "AcquisitionNumber": [1, 2, 3, 4, 5, 6, 7, 8, 9, 10, 11, 12, 13, 14, 15, 16, 17, 18, 19, 20, 21, 22, 23, 24, 25, 26, 27, 28, 29, 30, 31, 32, 33, 34, 35, 36, 37, 38, 39, 40, 41, 42, 43, 44, 45, 46, 47, 48, 49, 50, 51, 52, 53, 54, 55, 56, 57, 58, 59, 60, 61, 62, 63, 64, 65, 66, 67, 68, 69, 70, 71, 72, 73, 74, 75, 76, 77, 78, 79, 80, 81, 82, 83, 84, 85, 86, 87, 88, 89, 90, 91, 92, 93, 94, 95, 96, 97, 98, 99, 100, 101, 102, 103, 104, 105, 106, 107, 108, 109, 110, 111, 112, 113, 114, 115, 116, 117, 118, 119, 120, 121, 122, 123, 124, 125, 126, 127, 128, 129, 130, 131, 132, 133, 134, 135, 136, 137, 138, 139, 140, 141, 142, 143, 144, 145, 146, 147, 148, 149, 150, 151, 152, 153, 154, 155, 156, 157, 158, 159, 160, 161, 162, 163, 164, 165, 166, 167, 168],
      "AcquisitionTime": ["180541.750000", "180543.250000", "180544.750000", "180546.250000", "180547.750000", "180549.250000", "180550.750000", "180552.250000", "180553.750000", "180555.250000", "180556.750000", "180558.250000", "180559.750000", "180601.250000", "180602.750000", "180604.250000", "180605.750000", "180607.250000", "180608.750000", "180610.250000", "180611.750000", "180613.250000", "180614.750000", "180616.250000", "180617.750000", "180619.250000", "180620.750000", "180622.250000", "180623.750000", "180625.250000", "180626.750000", "180628.250000", "180629.750000", "180631.250000", "180632.750000", "180634.250000", "180635.750000", "180637.250000", "180638.750000", "180640.250000", "180641.750000", "180643.250000", "180644.750000", "180646.250000", "180647.750000", "180649.250000", "180650.750000", "180652.250000", "180653.750000", "180655.250000", "180656.750000", "180658.250000", "180659.750000", "180701.250000", "180702.750000", "180704.250000", "180705.750000", "180707.250000", "180708.750000", "180710.250000", "180711.750000", "180713.250000", "180714.750000", "180716.250000", "180717.750000", "180719.250000", "180720.750000", "180722.250000", "180723.750000", "180725.250000", "180726.750000", "180728.250000", "180729.750000", "180731.250000", "180732.750000", "180734.250000", "180735.750000", "180737.250000", "180738.750000", "180740.250000", "180741.750000", "180743.250000", "180744.750000", "180746.250000", "180747.750000", "180749.250000", "180750.750000", "180752.250000", "180753.750000", "180755.250000", "180756.750000", "180758.250000", "180759.750000", "180801.250000", "180802.750000", "180804.250000", "180805.750000", "180807.250000", "180808.750000", "180810.250000", "180811.750000", "180813.250000", "180814.750000", "180816.250000", "180817.750000", "180819.250000", "180820.750000", "180822.250000", "180823.750000", "180825.250000", "180826.750000", "180828.250000", "180829.750000", "180831.250000", "180832.750000", "180834.250000", "180835.750000", "180837.250000", "180838.750000", "180840.250000", "180841.750000", "180843.250000", "180844.750000", "180846.250000", "180847.750000", "180849.250000", "180850.750000", "180852.250000", "180853.750000", "180855.250000", "180856.750000", "180858.250000", "180859.750000", "180901.250000", "180902.750000", "180904.250000", "180905.750000", "180907.250000", "180908.750000", "180910.250000", "180911.750000", "180913.250000", "180914.750000", "180916.250000", "180917.750000", "180919.250000", "180920.750000", "180922.250000", "180923.750000", "180925.250000", "180926.750000", "180928.250000", "180929.750000", "180931.250000", "180932.750000", "180934.250000", "180935.750000", "180937.250000", "180938.750000", "180940.250000", "180941.750000", "180943.250000", "180944.750000", "180946.250000", "180947.750000", "180949.250000", "180950.750000", "180952.250000"],
      "ContentTime": ["180544.243000", "180545.238000", "180546.739000", "180548.238000", "180549.738000", "180551.238000", "180552.738000", "180554.239000", "180555.738000", "180557.238000", "180558.738000", "180600.239000", "180601.739000", "180603.239000", "180604.739000", "180606.238000", "180607.737000", "180609.237000", "180610.738000", "180612.239000", "180613.739000", "180615.239000", "180616.739000", "180618.238000", "180619.738000", "180621.239000", "180622.737000", "180624.238000", "180625.738000", "180627.238000", "180628.739000", "180630.239000", "180631.739000", "180633.239000", "180634.739000", "180636.239000", "180637.738000", "180639.239000", "180640.737000", "180642.237000", "180643.737000", "180645.238000", "180646.738000", "180648.238000", "180649.738000", "180651.239000", "180652.739000", "180654.239000", "180655.738000", "180657.238000", "180658.737000", "180700.237000", "180701.737000", "180703.238000", "180704.738000", "180706.239000", "180707.739000", "180709.239000", "180710.739000", "180712.239000", "180713.739000", "180715.238000", "180716.738000", "180718.238000", "180719.737000", "180721.238000", "180722.738000", "180724.239000", "180725.739000", "180727.239000", "180728.738000", "180730.238000", "180731.738000", "180733.238000", "180734.738000", "180736.238000", "180737.738000", "180739.239000", "180740.739000", "180742.239000", "180743.738000", "180745.238000", "180746.738000", "180748.239000", "180749.738000", "180751.238000", "180752.738000", "180754.238000", "180755.738000", "180757.238000", "180758.738000", "180800.756000", "180801.739000", "180803.239000", "180804.738000", "180806.239000", "180807.738000", "180809.238000", "180810.738000", "180812.238000", "180813.739000", "180815.238000", "180816.738000", "180818.238000", "180819.739000", "180821.239000", "180822.739000", "180824.239000", "180825.738000", "180827.237000", "180828.738000", "180830.238000", "180831.739000", "180833.238000", "180834.738000", "180836.238000", "180837.738000", "180839.238000", "180840.739000", "180842.239000", "180843.738000", "180845.238000", "180846.738000", "180848.238000", "180849.739000", "180851.239000", "180852.739000", "180854.239000", "180855.739000", "180857.239000", "180858.739000", "180900.238000", "180901.738000", "180903.238000", "180904.737000", "180906.238000", "180907.739000", "180909.239000", "180910.738000", "180912.239000", "180913.738000", "180915.239000", "180916.739000", "180918.238000", "180919.738000", "180921.237000", "180922.738000", "180924.238000", "180925.738000", "180927.238000", "180928.739000", "180930.239000", "180931.739000", "180933.239000", "180934.738000", "180936.238000", "180937.737000", "180939.237000", "180940.739000", "180942.239000", "180943.738000", "180945.239000", "180946.739000", "180948.239000", "180949.739000", "180951.239000", "180952.737000", "180954.238000"],
      "InstanceCreationTime": ["180544.243000", "180545.238000", "180546.739000", "180548.238000", "180549.738000", "180551.238000", "180552.738000", "180554.239000", "180555.738000", "180557.238000", "180558.738000", "180600.239000", "180601.739000", "180603.239000", "180604.739000", "180606.238000", "180607.737000", "180609.237000", "180610.738000", "180612.239000", "180613.739000", "180615.239000", "180616.739000", "180618.238000", "180619.738000", "180621.239000", "180622.737000", "180624.238000", "180625.738000", "180627.238000", "180628.739000", "180630.239000", "180631.739000", "180633.239000", "180634.739000", "180636.239000", "180637.738000", "180639.239000", "180640.737000", "180642.237000", "180643.737000", "180645.238000", "180646.738000", "180648.238000", "180649.738000", "180651.239000", "180652.739000", "180654.239000", "180655.738000", "180657.238000", "180658.737000", "180700.237000", "180701.737000", "180703.238000", "180704.738000", "180706.239000", "180707.739000", "180709.239000", "180710.739000", "180712.239000", "180713.739000", "180715.238000", "180716.738000", "180718.238000", "180719.737000", "180721.238000", "180722.738000", "180724.239000", "180725.739000", "180727.239000", "180728.738000", "180730.238000", "180731.738000", "180733.238000", "180734.738000", "180736.238000", "180737.738000", "180739.239000", "180740.739000", "180742.239000", "180743.738000", "180745.238000", "180746.738000", "180748.239000", "180749.738000", "180751.238000", "180752.738000", "180754.238000", "180755.738000", "180757.238000", "180758.738000", "180800.756000", "180801.739000", "180803.239000", "180804.738000", "180806.239000", "180807.738000", "180809.238000", "180810.738000", "180812.238000", "180813.739000", "180815.238000", "180816.738000", "180818.238000", "180819.739000", "180821.239000", "180822.739000", "180824.239000", "180825.738000", "180827.237000", "180828.738000", "180830.238000", "180831.739000", "180833.238000", "180834.738000", "180836.238000", "180837.738000", "180839.238000", "180840.739000", "180842.239000", "180843.738000", "180845.238000", "180846.738000", "180848.238000", "180849.739000", "180851.239000", "180852.739000", "180854.239000", "180855.739000", "180857.239000", "180858.739000", "180900.238000", "180901.738000", "180903.238000", "180904.737000", "180906.238000", "180907.739000", "180909.239000", "180910.738000", "180912.239000", "180913.738000", "180915.239000", "180916.739000", "180918.238000", "180919.738000", "180921.237000", "180922.738000", "180924.238000", "180925.738000", "180927.238000", "180928.739000", "180930.239000", "180931.739000", "180933.239000", "180934.738000", "180936.238000", "180937.737000", "180939.237000", "180940.739000", "180942.239000", "180943.738000", "180945.239000", "180946.739000", "180948.239000", "180949.739000", "180951.239000", "180952.737000", "180954.238000"],
      "InstanceNumber": [1, 2, 3, 4, 5, 6, 7, 8, 9, 10, 11, 12, 13, 14, 15, 16, 17, 18, 19, 20, 21, 22, 23, 24, 25, 26, 27, 28, 29, 30, 31, 32, 33, 34, 35, 36, 37, 38, 39, 40, 41, 42, 43, 44, 45, 46, 47, 48, 49, 50, 51, 52, 53, 54, 55, 56, 57, 58, 59, 60, 61, 62, 63, 64, 65, 66, 67, 68, 69, 70, 71, 72, 73, 74, 75, 76, 77, 78, 79, 80, 81, 82, 83, 84, 85, 86, 87, 88, 89, 90, 91, 92, 93, 94, 95, 96, 97, 98, 99, 100, 101, 102, 103, 104, 105, 106, 107, 108, 109, 110, 111, 112, 113, 114, 115, 116, 117, 118, 119, 120, 121, 122, 123, 124, 125, 126, 127, 128, 129, 130, 131, 132, 133, 134, 135, 136, 137, 138, 139, 140, 141, 142, 143, 144, 145, 146, 147, 148, 149, 150, 151, 152, 153, 154, 155, 156, 157, 158, 159, 160, 161, 162, 163, 164, 165, 166, 167, 168],
      "LargestImagePixelValue": [2454, 2444, 2383, 2420, 2422, 2402, 2470, 2373, 2466, 2396, 2406, 2459, 2438, 2448, 2451, 2456, 2429, 2429, 2442, 2459, 2464, 2397, 2489, 2366, 2459, 2405, 2507, 2453, 2429, 2481, 2416, 2433, 2447, 2422, 2485, 2409, 2501, 2418, 2485, 2471, 2417, 2481, 2430, 2487, 2412, 2469, 2423, 2457, 2470, 2431, 2473, 2395, 2438, 2442, 2365, 2454, 2429, 2486, 2406, 2375, 2431, 2390, 2465, 2410, 2476, 2393, 2394, 2422, 2354, 2442, 2371, 2433, 2378, 2379, 2383, 2377, 2384, 2419, 2391, 2422, 2397, 2368, 2433, 2362, 2395, 2378, 2401, 2373, 2438, 2392, 2389, 2388, 2379, 2407, 2429, 2408, 2400, 2401, 2421, 2401, 2449, 2402, 2398, 2412, 2437, 2409, 2382, 2415, 2444, 2405, 2386, 2417, 2391, 2403, 2398, 2419, 2400, 2393, 2406, 2417, 2409, 2398, 2412, 2390, 2411, 2403, 2404, 2406, 2392, 2376, 2404, 2412, 2396, 2393, 2390, 2390, 2410, 2386, 2397, 2389, 2407, 2391, 2430, 2406, 2419, 2409, 2423, 2413, 2415, 2427, 2410, 2413, 2407, 2424, 2420, 2422, 2437, 2438, 2428, 2432, 2433, 2419, 2425, 2421, 2424, 2402, 2437, 2428],
      "WindowCenter": [692.0, 691.0, 691.0, 692.0, 692.0, 691.0, 691.0, 689.0, 691.0, 691.0, 692.0, 692.0, 691.0, 690.0, 690.0, 690.0, 691.0, 691.0, 691.0, 691.0, 691.0, 690.0, 692.0, 691.0, 691.0, 690.0, 691.0, 691.0, 691.0, 692.0, 692.0, 693.0, 692.0, 692.0, 692.0, 691.0, 692.0, 691.0, 692.0, 693.0, 692.0, 692.0, 690.0, 691.0, 691.0, 693.0, 692.0, 692.0, 691.0, 689.0, 690.0, 690.0, 692.0, 692.0, 691.0, 691.0, 690.0, 691.0, 691.0, 692.0, 693.0, 692.0, 691.0, 690.0, 691.0, 692.0, 693.0, 692.0, 691.0, 691.0, 691.0, 692.0, 692.0, 693.0, 693.0, 692.0, 692.0, 692.0, 692.0, 692.0, 692.0, 691.0, 692.0, 691.0, 692.0, 692.0, 692.0, 692.0, 693.0, 691.0, 691.0, 691.0, 691.0, 692.0, 692.0, 692.0, 692.0, 692.0, 692.0, 692.0, 692.0, 692.0, 692.0, 692.0, 692.0, 691.0, 691.0, 692.0, 692.0, 692.0, 691.0, 692.0, 692.0, 693.0, 693.0, 694.0, 693.0, 693.0, 692.0, 692.0, 692.0, 692.0, 692.0, 692.0, 692.0, 692.0, 691.0, 692.0, 693.0, 693.0, 693.0, 692.0, 691.0, 691.0, 691.0, 693.0, 693.0, 692.0, 692.0, 691.0, 692.0, 692.0, 692.0, 691.0, 691.0, 690.0, 690.0, 691.0, 692.0, 693.0, 693.0, 692.0, 691.0, 691.0, 691.0, 692.0, 693.0, 693.0, 692.0, 691.0, 691.0, 692.0, 693.0, 693.0, 693.0, 692.0, 693.0, 692.0],
      "WindowWidth": [1497.0, 1494.0, 1495.0, 1497.0, 1498.0, 1495.0, 1494.0, 1490.0, 1494.0, 1494.0, 1496.0, 1496.0, 1495.0, 1492.0, 1491.0, 1492.0, 1493.0, 1495.0, 1495.0, 1495.0, 1493.0, 1493.0, 1496.0, 1494.0, 1495.0, 1493.0, 1495.0, 1493.0, 1493.0, 1497.0, 1497.0, 1499.0, 1498.0, 1497.0, 1497.0, 1494.0, 1496.0, 1493.0, 1496.0, 1498.0, 1497.0, 1496.0, 1493.0, 1494.0, 1494.0, 1499.0, 1498.0, 1498.0, 1494.0, 1490.0, 1491.0, 1492.0, 1496.0, 1498.0, 1495.0, 1495.0, 1491.0, 1493.0, 1494.0, 1498.0, 1499.0, 1496.0, 1493.0, 1491.0, 1494.0, 1496.0, 1499.0, 1498.0, 1495.0, 1495.0, 1493.0, 1497.0, 1498.0, 1499.0, 1500.0, 1499.0, 1497.0, 1497.0, 1497.0, 1498.0, 1497.0, 1495.0, 1497.0, 1495.0, 1497.0, 1496.0, 1498.0, 1497.0, 1498.0, 1495.0, 1495.0, 1495.0, 1496.0, 1496.0, 1496.0, 1496.0, 1498.0, 1497.0, 1497.0, 1495.0, 1496.0, 1496.0, 1496.0, 1497.0, 1497.0, 1495.0, 1495.0, 1496.0, 1496.0, 1496.0, 1495.0, 1497.0, 1497.0, 1500.0, 1500.0, 1501.0, 1499.0, 1498.0, 1496.0, 1497.0, 1496.0, 1496.0, 1496.0, 1496.0, 1497.0, 1496.0, 1495.0, 1496.0, 1498.0, 1500.0, 1500.0, 1496.0, 1494.0, 1493.0, 1495.0, 1498.0, 1501.0, 1498.0, 1497.0, 1495.0, 1496.0, 1496.0, 1497.0, 1494.0, 1493.0, 1491.0, 1492.0, 1494.0, 1498.0, 1500.0, 1499.0, 1496.0, 1493.0, 1492.0, 1494.0, 1497.0, 1499.0, 1499.0, 1495.0, 1494.0, 1494.0, 1495.0, 1498.0, 1499.0, 1499.0, 1497.0, 1498.0, 1497.0]
    },
    "slices": {}
  }
}