{
  "AcquisitionMatrixPE": 74,
  "AcquisitionNumber": 1,
  "AcquisitionTime": "15:42:34.215000",
  "BandwidthPerPixelPhaseEncode": 25.497,
  "BaseResolution": 74,
  "BodyPartExamined": "BRAIN",
  "CoilCombinationMethod": "Sum of Squares",
  "ConsistencyInfo": "N4_VE11C_LATEST_20160120",
  "ConversionSoftware": "dcm2niix",
  "ConversionSoftwareVersion": "v1.0.20220720",
  "DerivedVendorReportedEchoSpacing": 0.000530004,
  "DeviceSerialNumber": "45031",
  "DwellTime": 3e-06,
  "EchoTime": 0.028,
  "EchoTrainLength": 74,
  "EffectiveEchoSpacing": 0.000530004,
  "FlipAngle": 80,
  "HeudiconvVersion": "0.12.2",
  "ImageOrientationPatientDICOM": [0.99883, 0.0279551, -0.0394484, -0.0341818, 0.985325, -0.167229],
  "ImageOrientationText": "Tra>Cor(-9.7)>Sag(-2.0)",
  "ImageType": [
    "ORIGINAL",
    "PRIMARY",
    "M",
    "ND",
    "MOSAIC"
],
  "ImagingFrequency": 123.25,
  "InPlanePhaseEncodingDirectionDICOM": "COL",
  "InstitutionAddress": "Washington and Faculty Rd. - Building 25 25,Princeton,NJ,US,08540",
  "InstitutionName": "Princeton University - Neuroscience Institute",
  "InstitutionalDepartmentName": "Department",
  "MRAcquisitionType": "2D",
  "MagneticFieldStrength": 3,
  "Manufacturer": "Siemens",
  "ManufacturersModelName": "Skyra",
  "Modality": "MR",
  "MultibandAccelerationFactor": 2,
  "NonlinearGradientCorrection": false,
  "PartialFourier": 1,
  "PatientPosition": "HFS",
  "PercentPhaseFOV": 100,
  "PercentSampling": 100,
  "PhaseEncodingDirection": "j-",
  "PhaseEncodingSteps": 74,
  "PhaseResolution": 1,
  "PixelBandwidth": 2250,
  "ProcedureStepDescription": "NormaL_Robert^Tangrams",
  "ProtocolName": "func_task-PostExposure_run-01",
  "PulseSequenceDetails": "%SiemensSeq%\\ep2d_bold",
  "ReceiveCoilActiveElements": "HC1-7",
  "ReceiveCoilName": "HeadNeck_64",
  "ReconMatrixPE": 74,
  "RefLinesPE": 12,
  "RepetitionTime": 1.5,
  "SAR": 0.111099,
  "ScanOptions": "FS",
  "ScanningSequence": "EP",
  "SequenceName": "*epfid2d1_74",
  "SequenceVariant": "SK",
  "SeriesDescription": "func_task-PostExposure_run-01",
  "SeriesNumber": 15,
  "ShimSetting": [3343, 8836, 9212, 467, -44, 9, 318, 193],
  "SliceThickness": 3,
  "SliceTiming": [0.7075, 0, 0.7725, 0.065, 0.835, 0.1275, 0.9, 0.1925, 0.965, 0.2575, 1.03, 0.3225, 1.0925, 0.385, 1.1575, 0.45, 1.2225, 0.515, 1.2875, 0.58, 1.35, 0.6425, 1.415, 0.7075, 0, 0.7725, 0.065, 0.835, 0.1275, 0.9, 0.1925, 0.965, 0.2575, 1.03, 0.3225, 1.0925, 0.385, 1.1575, 0.45, 1.2225, 0.515, 1.2875, 0.58, 1.35, 0.6425, 1.415],
  "SoftwareVersions": "syngo MR E11",
  "SpacingBetweenSlices": 3,
  "StationName": "AWP45031",
  "TaskName": "PostExposure",
  "TotalReadoutTime": 0.0386903,
  "TxRefAmp": 374.306,
  "dcmmeta_affine": [
    [-2.9964914321899414, -0.10254529863595963, -0.10258398950099945, 113.43685150146484],
    [-0.08386532217264175, 2.9559762477874756, -0.505144476890564, -108.50385284423828],
    [-0.11834534257650375, 0.5016859769821167, 2.95538592338562, -89.2551498413086],
    [0.0, 0.0, 0.0, 1.0]
],
  "dcmmeta_reorient_transform": [
    [0.0, -1.0, 0.0, 73.0],
    [1.0, 0.0, 0.0, 0.0],
    [0.0, 0.0, 1.0, 0.0],
    [0.0, 0.0, 0.0, 1.0]
],
  "dcmmeta_shape": [74, 74, 46, 174],
  "dcmmeta_slice_dim": 2,
  "dcmmeta_version": 0.6,
  "global": {
    "const": {
      "AcquisitionMatrix": [74, 0, 0, 74],
      "AngioFlag": "N",
      "BitsAllocated": 16,
      "BitsStored": 12,
      "BodyPartExamined": "BRAIN",
      "Columns": 518,
      "EchoNumbers": 1,
      "EchoTime": 28.0,
      "EchoTrainLength": 74,
      "FlipAngle": 80.0,
      "HighBit": 11,
      "ImageOrientationPatient": [0.99883048204311, 0.027955108431, -0.0394484480575, -0.0341817662889, 0.98532541915031, -0.1672286615076],
      "ImagePositionPatient": [-748.40709016882, -782.12724515346, 85.014879574027],
      "ImageType": [
        "ORIGINAL",
        "PRIMARY",
        "M",
        "ND",
        "MOSAIC"
],
      "ImagedNucleus": "1H",
      "ImagingFrequency": 123.25034,
      "InPlanePhaseEncodingDirection": "COL",
      "MRAcquisitionType": "2D",
      "MagneticFieldStrength": 3.0,
      "Manufacturer": "SIEMENS",
      "ManufacturerModelName": "Skyra",
      "Modality": "MR",
      "NumberOfAverages": 1.0,
      "NumberOfPhaseEncodingSteps": 74,
      "PercentPhaseFieldOfView": 100.0,
      "PercentSampling": 100.0,
      "PerformedProcedureStepStartTime": "135050.254000",
      "PhotometricInterpretation": "MONOCHROME2",
      "PixelBandwidth": 2250.0,
      "PixelRepresentation": 0,
      "PixelSpacing": [3.0, 3.0],
      "ProtocolName": "func_task-PostExposure_run-01",
      "RepetitionTime": 1500.0,
      "Rows": 518,
      "SAR": 0.11109890185587,
      "SamplesPerPixel": 1,
      "ScanOptions": "FS",
      "ScanningSequence": "EP",
      "SequenceName": "*epfid2d1_74",
      "SequenceVariant": "SK",
      "SeriesDescription": "func_task-PostExposure_run-01",
      "SeriesNumber": 15,
      "SeriesTime": "154236.577000",
      "SliceLocation": -73.536698032491,
      "SliceThickness": 3.0,
      "SmallestImagePixelValue": 0,
      "SoftwareVersions": "syngo MR E11",
      "SpacingBetweenSlices": 2.999999987953,
      "SpecificCharacterSet": "ISO_IR 100",
      "StudyID": "1",
      "StudyTime": "135050.159000",
      "TransmitCoilName": "Body",
      "VariableFlipAngleFlag": "N",
      "WindowCenterWidthExplanation": "Algo1",
      "dBdt": 0.0},
    "slices": {}
  },
  "time": {
    "samples": {
      "AcquisitionNumber": [1, 2, 3, 4, 5, 6, 7, 8, 9, 10, 11, 12, 13, 14, 15, 16, 17, 18, 19, 20, 21, 22, 23, 24, 25, 26, 27, 28, 29, 30, 31, 32, 33, 34, 35, 36, 37, 38, 39, 40, 41, 42, 43, 44, 45, 46, 47, 48, 49, 50, 51, 52, 53, 54, 55, 56, 57, 58, 59, 60, 61, 62, 63, 64, 65, 66, 67, 68, 69, 70, 71, 72, 73, 74, 75, 76, 77, 78, 79, 80, 81, 82, 83, 84, 85, 86, 87, 88, 89, 90, 91, 92, 93, 94, 95, 96, 97, 98, 99, 100, 101, 102, 103, 104, 105, 106, 107, 108, 109, 110, 111, 112, 113, 114, 115, 116, 117, 118, 119, 120, 121, 122, 123, 124, 125, 126, 127, 128, 129, 130, 131, 132, 133, 134, 135, 136, 137, 138, 139, 140, 141, 142, 143, 144, 145, 146, 147, 148, 149, 150, 151, 152, 153, 154, 155, 156, 157, 158, 159, 160, 161, 162, 163, 164, 165, 166, 167, 168, 169, 170, 171, 172, 173, 174],
      "AcquisitionTime": ["154234.215000", "154235.715000", "154237.215000", "154238.715000", "154240.215000", "154241.715000", "154243.215000", "154244.715000", "154246.215000", "154247.715000", "154249.215000", "154250.715000", "154252.215000", "154253.715000", "154255.215000", "154256.715000", "154258.215000", "154259.715000", "154301.215000", "154302.715000", "154304.215000", "154305.715000", "154307.215000", "154308.715000", "154310.215000", "154311.715000", "154313.215000", "154314.715000", "154316.215000", "154317.715000", "154319.215000", "154320.715000", "154322.215000", "154323.715000", "154325.215000", "154326.715000", "154328.215000", "154329.715000", "154331.215000", "154332.715000", "154334.215000", "154335.715000", "154337.215000", "154338.715000", "154340.215000", "154341.715000", "154343.215000", "154344.715000", "154346.215000", "154347.715000", "154349.215000", "154350.715000", "154352.215000", "154353.715000", "154355.215000", "154356.715000", "154358.215000", "154359.715000", "154401.215000", "154402.715000", "154404.215000", "154405.715000", "154407.215000", "154408.715000", "154410.215000", "154411.715000", "154413.215000", "154414.715000", "154416.215000", "154417.715000", "154419.215000", "154420.715000", "154422.215000", "154423.715000", "154425.215000", "154426.715000", "154428.215000", "154429.715000", "154431.215000", "154432.715000", "154434.215000", "154435.715000", "154437.215000", "154438.715000", "154440.215000", "154441.715000", "154443.215000", "154444.715000", "154446.215000", "154447.715000", "154449.215000", "154450.715000", "154452.215000", "154453.715000", "154455.215000", "154456.715000", "154458.215000", "154459.715000", "154501.215000", "154502.715000", "154504.215000", "154505.715000", "154507.215000", "154508.715000", "154510.215000", "154511.715000", "154513.215000", "154514.715000", "154516.215000", "154517.715000", "154519.215000", "154520.715000", "154522.215000", "154523.715000", "154525.215000", "154526.715000", "154528.215000", "154529.715000", "154531.215000", "154532.715000", "154534.215000", "154535.715000", "154537.215000", "154538.715000", "154540.215000", "154541.715000", "154543.215000", "154544.715000", "154546.215000", "154547.715000", "154549.215000", "154550.715000", "154552.215000", "154553.715000", "154555.215000", "154556.715000", "154558.215000", "154559.715000", "154601.215000", "154602.715000", "154604.215000", "154605.715000", "154607.215000", "154608.715000", "154610.215000", "154611.715000", "154613.215000", "154614.715000", "154616.215000", "154617.715000", "154619.215000", "154620.715000", "154622.215000", "154623.715000", "154625.215000", "154626.715000", "154628.215000", "154629.715000", "154631.215000", "154632.715000", "154634.215000", "154635.715000", "154637.215000", "154638.715000", "154640.215000", "154641.715000", "154643.215000", "154644.715000", "154646.215000", "154647.715000", "154649.215000", "154650.715000", "154652.215000", "154653.715000"],
      "ContentTime": ["154236.581000", "154237.576000", "154239.576000", "154241.076000", "154242.575000", "154243.574000", "154245.075000", "154246.575000", "154248.075000", "154249.576000", "154251.075000", "154252.576000", "154254.076000", "154255.576000", "154257.076000", "154258.576000", "154300.075000", "154302.075000", "154303.075000", "154304.575000", "154306.076000", "154307.576000", "154309.076000", "154310.576000", "154312.076000", "154313.576000", "154315.576000", "154316.576000", "154318.075000", "154319.575000", "154321.075000", "154322.575000", "154324.076000", "154325.576000", "154327.076000", "154328.576000", "154330.076000", "154331.576000", "154333.076000", "154334.576000", "154336.075000", "154337.575000", "154339.075000", "154340.575000", "154342.075000", "154344.076000", "154345.576000", "154346.576000", "154348.576000", "154349.576000", "154351.076000", "154353.075000", "154354.075000", "154355.575000", "154357.075000", "154358.577000", "154400.076000", "154401.576000", "154403.576000", "154405.076000", "154406.576000", "154407.576000", "154409.576000", "154410.575000", "154412.074000", "154413.575000", "154415.075000", "154416.576000", "154418.076000", "154419.576000", "154421.075000", "154422.576000", "154424.076000", "154425.576000", "154427.575000", "154428.575000", "154430.075000", "154431.575000", "154433.576000", "154434.576000", "154436.076000", "154437.576000", "154439.076000", "154440.576000", "154442.576000", "154443.576000", "154445.075000", "154446.574000", "154448.075000", "154449.575000", "154451.076000", "154453.076000", "154454.076000", "154455.576000", "154457.076000", "154458.576000", "154500.076000", "154501.576000", "154503.075000", "154504.575000", "154506.075000", "154507.575000", "154509.576000", "154511.076000", "154512.076000", "154513.576000", "154515.576000", "154516.576000", "154518.076000", "154519.576000", "154521.075000", "154522.575000", "154524.075000", "154525.576000", "154527.076000", "154528.576000", "154530.076000", "154531.576000", "154533.076000", "154534.576000", "154536.076000", "154537.575000", "154539.075000", "154540.575000", "154542.075000", "154543.576000", "154545.076000", "154546.576000", "154548.076000", "154549.576000", "154551.076000", "154552.576000", "154554.076000", "154555.575000", "154557.075000", "154558.575000", "154600.576000", "154601.576000", "154603.076000", "154605.076000", "154606.076000", "154607.576000", "154609.076000", "154610.576000", "154612.076000", "154613.575000", "154615.075000", "154616.575000", "154618.076000", "154619.576000", "154621.076000", "154622.576000", "154624.076000", "154625.576000", "154627.076000", "154629.076000", "154630.074000", "154631.575000", "154633.075000", "154634.575000", "154636.076000", "154637.576000", "154639.076000", "154640.576000", "154642.076000", "154643.576000", "154645.075000", "154647.076000", "154648.075000", "154649.575000", "154651.075000", "154652.575000", "154654.076000", "154655.530000"],
      "InstanceCreationTime": ["154236.581000", "154237.576000", "154239.576000", "154241.076000", "154242.575000", "154243.574000", "154245.075000", "154246.575000", "154248.075000", "154249.576000", "154251.075000", "154252.576000", "154254.076000", "154255.576000", "154257.076000", "154258.576000", "154300.075000", "154302.075000", "154303.075000", "154304.575000", "154306.076000", "154307.576000", "154309.076000", "154310.576000", "154312.076000", "154313.576000", "154315.576000", "154316.576000", "154318.075000", "154319.575000", "154321.075000", "154322.575000", "154324.076000", "154325.576000", "154327.076000", "154328.576000", "154330.076000", "154331.576000", "154333.076000", "154334.576000", "154336.075000", "154337.575000", "154339.075000", "154340.575000", "154342.075000", "154344.076000", "154345.576000", "154346.576000", "154348.576000", "154349.576000", "154351.076000", "154353.075000", "154354.075000", "154355.575000", "154357.075000", "154358.577000", "154400.076000", "154401.576000", "154403.576000", "154405.076000", "154406.576000", "154407.576000", "154409.576000", "154410.575000", "154412.074000", "154413.575000", "154415.075000", "154416.576000", "154418.076000", "154419.576000", "154421.075000", "154422.576000", "154424.076000", "154425.576000", "154427.575000", "154428.575000", "154430.075000", "154431.575000", "154433.576000", "154434.576000", "154436.076000", "154437.576000", "154439.076000", "154440.576000", "154442.576000", "154443.576000", "154445.075000", "154446.574000", "154448.075000", "154449.575000", "154451.076000", "154453.076000", "154454.076000", "154455.576000", "154457.076000", "154458.576000", "154500.076000", "154501.576000", "154503.075000", "154504.575000", "154506.075000", "154507.575000", "154509.576000", "154511.076000", "154512.076000", "154513.576000", "154515.576000", "154516.576000", "154518.076000", "154519.576000", "154521.075000", "154522.575000", "154524.075000", "154525.576000", "154527.076000", "154528.576000", "154530.076000", "154531.576000", "154533.076000", "154534.576000", "154536.076000", "154537.575000", "154539.075000", "154540.575000", "154542.075000", "154543.576000", "154545.076000", "154546.576000", "154548.076000", "154549.576000", "154551.076000", "154552.576000", "154554.076000", "154555.575000", "154557.075000", "154558.575000", "154600.576000", "154601.576000", "154603.076000", "154605.076000", "154606.076000", "154607.576000", "154609.076000", "154610.576000", "154612.076000", "154613.575000", "154615.075000", "154616.575000", "154618.076000", "154619.576000", "154621.076000", "154622.576000", "154624.076000", "154625.576000", "154627.076000", "154629.076000", "154630.074000", "154631.575000", "154633.075000", "154634.575000", "154636.076000", "154637.576000", "154639.076000", "154640.576000", "154642.076000", "154643.576000", "154645.075000", "154647.076000", "154648.075000", "154649.575000", "154651.075000", "154652.575000", "154654.076000", "154655.530000"],
      "InstanceNumber": [1, 2, 3, 4, 5, 6, 7, 8, 9, 10, 11, 12, 13, 14, 15, 16, 17, 18, 19, 20, 21, 22, 23, 24, 25, 26, 27, 28, 29, 30, 31, 32, 33, 34, 35, 36, 37, 38, 39, 40, 41, 42, 43, 44, 45, 46, 47, 48, 49, 50, 51, 52, 53, 54, 55, 56, 57, 58, 59, 60, 61, 62, 63, 64, 65, 66, 67, 68, 69, 70, 71, 72, 73, 74, 75, 76, 77, 78, 79, 80, 81, 82, 83, 84, 85, 86, 87, 88, 89, 90, 91, 92, 93, 94, 95, 96, 97, 98, 99, 100, 101, 102, 103, 104, 105, 106, 107, 108, 109, 110, 111, 112, 113, 114, 115, 116, 117, 118, 119, 120, 121, 122, 123, 124, 125, 126, 127, 128, 129, 130, 131, 132, 133, 134, 135, 136, 137, 138, 139, 140, 141, 142, 143, 144, 145, 146, 147, 148, 149, 150, 151, 152, 153, 154, 155, 156, 157, 158, 159, 160, 161, 162, 163, 164, 165, 166, 167, 168, 169, 170, 171, 172, 173, 174],
      "LargestImagePixelValue": [3503, 3456, 3476, 3444, 3430, 3423, 3437, 3428, 3438, 3443, 3456, 3433, 3452, 3403, 3424, 3379, 3394, 3372, 3397, 3394, 3421, 3407, 3380, 3402, 3375, 3421, 3401, 3396, 3409, 3416, 3484, 3447, 3426, 3429, 3390, 3447, 3438, 3460, 3447, 3430, 3438, 3409, 3451, 3450, 3453, 3468, 3466, 3480, 3470, 3480, 3474, 3465, 3434, 3456, 3447, 3444, 3438, 3434, 3479, 3480, 3472, 3486, 3451, 3438, 3434, 3456, 3465, 3448, 3433, 3437, 3443, 3478, 3486, 3475, 3480, 3460, 3449, 3486, 3468, 3462, 3463, 3498, 3464, 3463, 3428, 3436, 3411, 3444, 3440, 3438, 3424, 3434, 3465, 3450, 3453, 3422, 3459, 3449, 3454, 3434, 3443, 3444, 3473, 3440, 3490, 3489, 3466, 3491, 3449, 3393, 3383, 3407, 3444, 3418, 3443, 3453, 3414, 3453, 3421, 3502, 3441, 3476, 3467, 3420, 3491, 3462, 3458, 3477, 3426, 3497, 3472, 3471, 3375, 3401, 3423, 3417, 3458, 3480, 3430, 3464, 3433, 3442, 3545, 3449, 3521, 3489, 3503, 3469, 3497, 3467, 3584, 3536, 3553, 3365, 3597, 3523, 3538, 3399, 3522, 3572, 3562, 3519, 3464, 3586, 3472, 3542, 3518, 3533, 3396, 3492, 3475, 3545, 3471, 3501],
      "WindowCenter": [816.0, 814.0, 813.0, 814.0, 814.0, 814.0, 815.0, 815.0, 815.0, 815.0, 815.0, 814.0, 814.0, 814.0, 814.0, 815.0, 815.0, 814.0, 814.0, 813.0, 813.0, 813.0, 813.0, 814.0, 814.0, 814.0, 815.0, 814.0, 814.0, 815.0, 814.0, 814.0, 813.0, 813.0, 813.0, 814.0, 813.0, 813.0, 813.0, 813.0, 814.0, 814.0, 814.0, 814.0, 814.0, 814.0, 815.0, 814.0, 814.0, 814.0, 814.0, 814.0, 814.0, 813.0, 814.0, 814.0, 815.0, 814.0, 814.0, 814.0, 814.0, 814.0, 813.0, 814.0, 814.0, 814.0, 813.0, 814.0, 813.0, 813.0, 814.0, 814.0, 814.0, 814.0, 814.0, 813.0, 814.0, 815.0, 815.0, 816.0, 815.0, 814.0, 813.0, 813.0, 813.0, 813.0, 814.0, 815.0, 815.0, 814.0, 814.0, 815.0, 815.0, 815.0, 815.0, 815.0, 815.0, 815.0, 815.0, 815.0, 816.0, 815.0, 816.0, 815.0, 816.0, 815.0, 816.0, 816.0, 815.0, 814.0, 814.0, 813.0, 813.0, 813.0, 814.0, 816.0, 815.0, 816.0, 815.0, 816.0, 815.0, 815.0, 816.0, 815.0, 815.0, 815.0, 815.0, 815.0, 814.0, 815.0, 815.0, 816.0, 816.0, 816.0, 815.0, 814.0, 814.0, 814.0, 814.0, 814.0, 815.0, 815.0, 816.0, 815.0, 815.0, 814.0, 815.0, 815.0, 815.0, 815.0, 816.0, 816.0, 816.0, 815.0, 816.0, 816.0, 816.0, 816.0, 816.0, 816.0, 817.0, 817.0, 817.0, 817.0, 816.0, 816.0, 816.0, 816.0, 816.0, 816.0, 817.0, 817.0, 816.0, 815.0],
      "WindowWidth": [1798.0, 1794.0, 1791.0, 1792.0, 1794.0, 1794.0, 1795.0, 1794.0, 1796.0, 1795.0, 1794.0, 1793.0, 1793.0, 1792.0, 1794.0, 1795.0, 1796.0, 1793.0, 1792.0, 1790.0, 1789.0, 1789.0, 1791.0, 1792.0, 1793.0, 1794.0, 1795.0, 1794.0, 1793.0, 1794.0, 1794.0, 1792.0, 1789.0, 1789.0, 1791.0, 1792.0, 1791.0, 1790.0, 1790.0, 1790.0, 1792.0, 1792.0, 1793.0, 1793.0, 1793.0, 1794.0, 1794.0, 1794.0, 1794.0, 1793.0, 1794.0, 1792.0, 1792.0, 1791.0, 1793.0, 1793.0, 1795.0, 1794.0, 1794.0, 1794.0, 1792.0, 1792.0, 1790.0, 1792.0, 1794.0, 1794.0, 1791.0, 1791.0, 1790.0, 1791.0, 1792.0, 1794.0, 1792.0, 1792.0, 1791.0, 1790.0, 1792.0, 1795.0, 1796.0, 1797.0, 1795.0, 1791.0, 1788.0, 1789.0, 1788.0, 1791.0, 1793.0, 1795.0, 1794.0, 1793.0, 1792.0, 1795.0, 1796.0, 1796.0, 1797.0, 1796.0, 1797.0, 1795.0, 1795.0, 1796.0, 1797.0, 1797.0, 1797.0, 1796.0, 1797.0, 1796.0, 1798.0, 1797.0, 1795.0, 1792.0, 1791.0, 1791.0, 1790.0, 1790.0, 1793.0, 1797.0, 1796.0, 1798.0, 1796.0, 1797.0, 1795.0, 1797.0, 1798.0, 1796.0, 1797.0, 1795.0, 1794.0, 1794.0, 1793.0, 1795.0, 1796.0, 1798.0, 1798.0, 1799.0, 1796.0, 1794.0, 1793.0, 1793.0, 1793.0, 1794.0, 1796.0, 1797.0, 1799.0, 1796.0, 1796.0, 1794.0, 1795.0, 1794.0, 1797.0, 1796.0, 1799.0, 1799.0, 1800.0, 1795.0, 1798.0, 1797.0, 1798.0, 1796.0, 1797.0, 1799.0, 1801.0, 1801.0, 1800.0, 1801.0, 1798.0, 1798.0, 1799.0, 1798.0, 1796.0, 1799.0, 1800.0, 1800.0, 1798.0, 1796.0]
    },
    "slices": {}
  }
}