{
  "AcquisitionMatrixPE": 74,
  "AcquisitionNumber": 1,
  "AcquisitionTime": "13:20:4.810000",
  "BandwidthPerPixelPhaseEncode": 25.497,
  "BaseResolution": 74,
  "BodyPartExamined": "BRAIN",
  "CoilCombinationMethod": "Sum of Squares",
  "ConsistencyInfo": "N4_VE11C_LATEST_20160120",
  "ConversionSoftware": "dcm2niix",
  "ConversionSoftwareVersion": "v1.0.20220720",
  "DerivedVendorReportedEchoSpacing": 0.000530004,
  "DeviceSerialNumber": "45031",
  "DwellTime": 3e-06,
  "EchoTime": 0.028,
  "EchoTrainLength": 74,
  "EffectiveEchoSpacing": 0.000530004,
  "FlipAngle": 80,
  "HeudiconvVersion": "0.12.2",
  "ImageOrientationPatientDICOM": [0.998062, 0.0368194, -0.0501602, -0.0376439, 0.99917, -0.0155932],
  "ImageOrientationText": "Tra>Sag(-2.8)>Cor(-1.0)",
  "ImageType": [
    "ORIGINAL",
    "PRIMARY",
    "M",
    "ND",
    "MOSAIC"
],
  "ImagingFrequency": 123.25,
  "InPlanePhaseEncodingDirectionDICOM": "COL",
  "InstitutionAddress": "Washington and Faculty Rd. - Building 25 25,Princeton,NJ,US,08540",
  "InstitutionName": "Princeton University - Neuroscience Institute",
  "InstitutionalDepartmentName": "Department",
  "MRAcquisitionType": "2D",
  "MagneticFieldStrength": 3,
  "Manufacturer": "Siemens",
  "ManufacturersModelName": "Skyra",
  "Modality": "MR",
  "MultibandAccelerationFactor": 2,
  "NonlinearGradientCorrection": false,
  "PartialFourier": 1,
  "PatientPosition": "HFS",
  "PercentPhaseFOV": 100,
  "PercentSampling": 100,
  "PhaseEncodingDirection": "j-",
  "PhaseEncodingSteps": 74,
  "PhaseResolution": 1,
  "PixelBandwidth": 2250,
  "ProcedureStepDescription": "NormaL_Robert^Tangrams",
  "ProtocolName": "func_task-PostExposure_run-01",
  "PulseSequenceDetails": "%SiemensSeq%\\ep2d_bold",
  "ReceiveCoilActiveElements": "HC1-7",
  "ReceiveCoilName": "HeadNeck_64",
  "ReconMatrixPE": 74,
  "RefLinesPE": 12,
  "RepetitionTime": 1.5,
  "SAR": 0.0734774,
  "ScanOptions": "FS",
  "ScanningSequence": "EP",
  "SequenceName": "*epfid2d1_74",
  "SequenceVariant": "SK",
  "SeriesDescription": "func_task-PostExposure_run-01",
  "SeriesNumber": 19,
  "ShimSetting": [3379, 8714, 9243, 516, -54, -511, 1, 249],
  "SliceThickness": 3,
  "SliceTiming": [0.7075, 0, 0.7725, 0.0625, 0.835, 0.1275, 0.9, 0.1925, 0.965, 0.2575, 1.0275, 0.32, 1.0925, 0.385, 1.1575, 0.45, 1.2225, 0.515, 1.285, 0.5775, 1.35, 0.6425, 1.415, 0.7075, 0, 0.7725, 0.0625, 0.835, 0.1275, 0.9, 0.1925, 0.965, 0.2575, 1.0275, 0.32, 1.0925, 0.385, 1.1575, 0.45, 1.2225, 0.515, 1.285, 0.5775, 1.35, 0.6425, 1.415],
  "SoftwareVersions": "syngo MR E11",
  "SpacingBetweenSlices": 3,
  "StationName": "AWP45031",
  "TaskName": "PostExposure",
  "TotalReadoutTime": 0.0386903,
  "TxRefAmp": 300.529,
  "dcmmeta_affine": [
    [-2.9941868782043457, -0.11293178051710129, -0.14863333106040955, 117.48072814941406],
    [-0.11045819520950317, 2.9975085258483887, -0.052353739738464355, -117.26945495605469],
    [-0.1504807025194168, 0.046779703348875046, 2.9958584308624268, -46.59428405761719],
    [0.0, 0.0, 0.0, 1.0]
],
  "dcmmeta_reorient_transform": [
    [0.0, -1.0, 0.0, 73.0],
    [1.0, 0.0, 0.0, 0.0],
    [0.0, 0.0, 1.0, 0.0],
    [0.0, 0.0, 0.0, 1.0]
],
  "dcmmeta_shape": [74, 74, 46, 168],
  "dcmmeta_slice_dim": 2,
  "dcmmeta_version": 0.6,
  "global": {
    "const": {
      "AcquisitionMatrix": [74, 0, 0, 74],
      "AngioFlag": "N",
      "BitsAllocated": 16,
      "BitsStored": 12,
      "BodyPartExamined": "BRAIN",
      "Columns": 518,
      "EchoNumbers": 1,
      "EchoTime": 28.0,
      "EchoTrainLength": 74,
      "FlipAngle": 80.0,
      "HighBit": 11,
      "ImageOrientationPatient": [0.99806226394177, 0.03681939910211, -0.0501602347003, -0.0376439266537, 0.99916954808812, -0.0155932344136],
      "ImagePositionPatient": [-748.87531998445, -791.51731554652, 0.61244486060941],
      "ImageType": [
        "ORIGINAL",
        "PRIMARY",
        "M",
        "ND",
        "MOSAIC"
],
      "ImagedNucleus": "1H",
      "ImagingFrequency": 123.250222,
      "InPlanePhaseEncodingDirection": "COL",
      "MRAcquisitionType": "2D",
      "MagneticFieldStrength": 3.0,
      "Manufacturer": "SIEMENS",
      "ManufacturerModelName": "Skyra",
      "Modality": "MR",
      "NumberOfAverages": 1.0,
      "NumberOfPhaseEncodingSteps": 74,
      "PercentPhaseFieldOfView": 100.0,
      "PercentSampling": 100.0,
      "PerformedProcedureStepStartTime": "113905.273000",
      "PhotometricInterpretation": "MONOCHROME2",
      "PixelBandwidth": 2250.0,
      "PixelRepresentation": 0,
      "PixelSpacing": [3.0, 3.0],
      "ProtocolName": "func_task-PostExposure_run-01",
      "RepetitionTime": 1500.0,
      "Rows": 518,
      "SAR": 0.07347739917719,
      "SamplesPerPixel": 1,
      "ScanOptions": "FS",
      "ScanningSequence": "EP",
      "SequenceName": "*epfid2d1_74",
      "SequenceVariant": "SK",
      "SeriesDescription": "func_task-PostExposure_run-01",
      "SeriesNumber": 19,
      "SeriesTime": "132006.418000",
      "SliceLocation": -50.303977348513,
      "SliceThickness": 3.0,
      "SmallestImagePixelValue": 0,
      "SoftwareVersions": "syngo MR E11",
      "SpacingBetweenSlices": 2.9999999964386,
      "SpecificCharacterSet": "ISO_IR 100",
      "StudyID": "1",
      "StudyTime": "113905.121000",
      "TransmitCoilName": "Body",
      "VariableFlipAngleFlag": "N",
      "WindowCenterWidthExplanation": "Algo1",
      "dBdt": 0.0},
    "slices": {}
  },
  "time": {
    "samples": {
      "AcquisitionNumber": [1, 2, 3, 4, 5, 6, 7, 8, 9, 10, 11, 12, 13, 14, 15, 16, 17, 18, 19, 20, 21, 22, 23, 24, 25, 26, 27, 28, 29, 30, 31, 32, 33, 34, 35, 36, 37, 38, 39, 40, 41, 42, 43, 44, 45, 46, 47, 48, 49, 50, 51, 52, 53, 54, 55, 56, 57, 58, 59, 60, 61, 62, 63, 64, 65, 66, 67, 68, 69, 70, 71, 72, 73, 74, 75, 76, 77, 78, 79, 80, 81, 82, 83, 84, 85, 86, 87, 88, 89, 90, 91, 92, 93, 94, 95, 96, 97, 98, 99, 100, 101, 102, 103, 104, 105, 106, 107, 108, 109, 110, 111, 112, 113, 114, 115, 116, 117, 118, 119, 120, 121, 122, 123, 124, 125, 126, 127, 128, 129, 130, 131, 132, 133, 134, 135, 136, 137, 138, 139, 140, 141, 142, 143, 144, 145, 146, 147, 148, 149, 150, 151, 152, 153, 154, 155, 156, 157, 158, 159, 160, 161, 162, 163, 164, 165, 166, 167, 168],
      "AcquisitionTime": ["132004.810000", "132006.310000", "132007.810000", "132009.310000", "132010.810000", "132012.310000", "132013.810000", "132015.310000", "132016.810000", "132018.310000", "132019.810000", "132021.310000", "132022.810000", "132024.310000", "132025.810000", "132027.310000", "132028.810000", "132030.310000", "132031.810000", "132033.310000", "132034.810000", "132036.310000", "132037.810000", "132039.310000", "132040.810000", "132042.310000", "132043.810000", "132045.310000", "132046.810000", "132048.310000", "132049.810000", "132051.310000", "132052.810000", "132054.310000", "132055.810000", "132057.310000", "132058.810000", "132100.310000", "132101.810000", "132103.310000", "132104.810000", "132106.310000", "132107.810000", "132109.310000", "132110.810000", "132112.310000", "132113.810000", "132115.310000", "132116.810000", "132118.310000", "132119.810000", "132121.310000", "132122.810000", "132124.310000", "132125.810000", "132127.310000", "132128.810000", "132130.310000", "132131.810000", "132133.310000", "132134.810000", "132136.310000", "132137.810000", "132139.310000", "132140.810000", "132142.310000", "132143.810000", "132145.310000", "132146.810000", "132148.310000", "132149.810000", "132151.310000", "132152.810000", "132154.310000", "132155.810000", "132157.310000", "132158.810000", "132200.310000", "132201.810000", "132203.310000", "132204.810000", "132206.310000", "132207.810000", "132209.310000", "132210.810000", "132212.310000", "132213.810000", "132215.310000", "132216.810000", "132218.310000", "132219.810000", "132221.310000", "132222.810000", "132224.310000", "132225.810000", "132227.310000", "132228.810000", "132230.310000", "132231.810000", "132233.310000", "132234.810000", "132236.310000", "132237.810000", "132239.310000", "132240.810000", "132242.310000", "132243.810000", "132245.310000", "132246.810000", "132248.310000", "132249.810000", "132251.310000", "132252.810000", "132254.310000", "132255.810000", "132257.310000", "132258.810000", "132300.310000", "132301.810000", "132303.310000", "132304.810000", "132306.310000", "132307.810000", "132309.310000", "132310.810000", "132312.310000", "132313.810000", "132315.310000", "132316.810000", "132318.310000", "132319.810000", "132321.310000", "132322.810000", "132324.310000", "132325.810000", "132327.310000", "132328.810000", "132330.310000", "132331.810000", "132333.310000", "132334.810000", "132336.310000", "132337.810000", "132339.310000", "132340.810000", "132342.310000", "132343.810000", "132345.310000", "132346.810000", "132348.310000", "132349.810000", "132351.310000", "132352.810000", "132354.310000", "132355.810000", "132357.310000", "132358.810000", "132400.310000", "132401.810000", "132403.310000", "132404.810000", "132406.310000", "132407.810000", "132409.310000", "132410.810000", "132412.310000", "132413.810000", "132415.310000"],
      "ContentTime": ["132006.422000", "132007.917000", "132009.417000", "132010.917000", "132012.416000", "132013.916000", "132015.416000", "132016.916000", "132018.416000", "132019.917000", "132021.417000", "132022.917000", "132024.417000", "132025.917000", "132027.417000", "132028.917000", "132030.416000", "132031.916000", "132033.416000", "132034.916000", "132036.417000", "132037.917000", "132039.417000", "132040.917000", "132042.417000", "132043.917000", "132045.417000", "132046.916000", "132048.416000", "132049.916000", "132051.416000", "132052.916000", "132054.417000", "132055.917000", "132057.417000", "132058.917000", "132100.417000", "132101.917000", "132103.417000", "132104.916000", "132106.416000", "132107.916000", "132109.416000", "132110.916000", "132112.417000", "132113.917000", "132115.417000", "132116.917000", "132118.417000", "132119.917000", "132121.417000", "132122.916000", "132124.416000", "132125.916000", "132127.416000", "132128.917000", "132130.417000", "132131.917000", "132133.417000", "132134.917000", "132136.417000", "132137.917000", "132139.416000", "132140.916000", "132142.416000", "132143.916000", "132145.416000", "132146.917000", "132148.417000", "132149.917000", "132151.417000", "132152.917000", "132154.417000", "132155.917000", "132157.416000", "132158.916000", "132200.416000", "132201.916000", "132203.416000", "132204.917000", "132206.417000", "132207.917000", "132209.417000", "132210.917000", "132212.417000", "132213.917000", "132215.416000", "132216.916000", "132218.416000", "132219.916000", "132221.417000", "132222.917000", "132224.417000", "132225.917000", "132227.417000", "132228.917000", "132230.417000", "132231.916000", "132233.416000", "132234.916000", "132236.416000", "132237.916000", "132239.417000", "132240.917000", "132242.417000", "132243.917000", "132245.417000", "132246.917000", "132248.417000", "132249.916000", "132251.416000", "132252.916000", "132254.416000", "132255.917000", "132257.417000", "132258.917000", "132300.417000", "132301.917000", "132303.417000", "132304.917000", "132306.417000", "132307.916000", "132309.416000", "132310.916000", "132312.416000", "132313.917000", "132315.417000", "132316.917000", "132318.417000", "132319.917000", "132321.417000", "132322.917000", "132324.416000", "132325.916000", "132327.417000", "132328.916000", "132330.416000", "132331.917000", "132333.417000", "132334.917000", "132336.417000", "132337.917000", "132339.417000", "132340.917000", "132342.416000", "132343.916000", "132345.416000", "132346.916000", "132348.417000", "132349.917000", "132351.417000", "132352.917000", "132354.417000", "132355.917000", "132357.417000", "132358.917000", "132400.416000", "132401.916000", "132403.416000", "132404.916000", "132406.417000", "132407.917000", "132409.417000", "132410.917000", "132412.417000", "132413.917000", "132415.417000", "132416.490000"],
      "InstanceCreationTime": ["132006.422000", "132007.917000", "132009.417000", "132010.917000", "132012.416000", "132013.916000", "132015.416000", "132016.916000", "132018.416000", "132019.917000", "132021.417000", "132022.917000", "132024.417000", "132025.917000", "132027.417000", "132028.917000", "132030.416000", "132031.916000", "132033.416000", "132034.916000", "132036.417000", "132037.917000", "132039.417000", "132040.917000", "132042.417000", "132043.917000", "132045.417000", "132046.916000", "132048.416000", "132049.916000", "132051.416000", "132052.916000", "132054.417000", "132055.917000", "132057.417000", "132058.917000", "132100.417000", "132101.917000", "132103.417000", "132104.916000", "132106.416000", "132107.916000", "132109.416000", "132110.916000", "132112.417000", "132113.917000", "132115.417000", "132116.917000", "132118.417000", "132119.917000", "132121.417000", "132122.916000", "132124.416000", "132125.916000", "132127.416000", "132128.917000", "132130.417000", "132131.917000", "132133.417000", "132134.917000", "132136.417000", "132137.917000", "132139.416000", "132140.916000", "132142.416000", "132143.916000", "132145.416000", "132146.917000", "132148.417000", "132149.917000", "132151.417000", "132152.917000", "132154.417000", "132155.917000", "132157.416000", "132158.916000", "132200.416000", "132201.916000", "132203.416000", "132204.917000", "132206.417000", "132207.917000", "132209.417000", "132210.917000", "132212.417000", "132213.917000", "132215.416000", "132216.916000", "132218.416000", "132219.916000", "132221.417000", "132222.917000", "132224.417000", "132225.917000", "132227.417000", "132228.917000", "132230.417000", "132231.916000", "132233.416000", "132234.916000", "132236.416000", "132237.916000", "132239.417000", "132240.917000", "132242.417000", "132243.917000", "132245.417000", "132246.917000", "132248.417000", "132249.916000", "132251.416000", "132252.916000", "132254.416000", "132255.917000", "132257.417000", "132258.917000", "132300.417000", "132301.917000", "132303.417000", "132304.917000", "132306.417000", "132307.916000", "132309.416000", "132310.916000", "132312.416000", "132313.917000", "132315.417000", "132316.917000", "132318.417000", "132319.917000", "132321.417000", "132322.917000", "132324.416000", "132325.916000", "132327.417000", "132328.916000", "132330.416000", "132331.917000", "132333.417000", "132334.917000", "132336.417000", "132337.917000", "132339.417000", "132340.917000", "132342.416000", "132343.916000", "132345.416000", "132346.916000", "132348.417000", "132349.917000", "132351.417000", "132352.917000", "132354.417000", "132355.917000", "132357.417000", "132358.917000", "132400.416000", "132401.916000", "132403.416000", "132404.916000", "132406.417000", "132407.917000", "132409.417000", "132410.917000", "132412.417000", "132413.917000", "132415.417000", "132416.490000"],
      "InstanceNumber": [1, 2, 3, 4, 5, 6, 7, 8, 9, 10, 11, 12, 13, 14, 15, 16, 17, 18, 19, 20, 21, 22, 23, 24, 25, 26, 27, 28, 29, 30, 31, 32, 33, 34, 35, 36, 37, 38, 39, 40, 41, 42, 43, 44, 45, 46, 47, 48, 49, 50, 51, 52, 53, 54, 55, 56, 57, 58, 59, 60, 61, 62, 63, 64, 65, 66, 67, 68, 69, 70, 71, 72, 73, 74, 75, 76, 77, 78, 79, 80, 81, 82, 83, 84, 85, 86, 87, 88, 89, 90, 91, 92, 93, 94, 95, 96, 97, 98, 99, 100, 101, 102, 103, 104, 105, 106, 107, 108, 109, 110, 111, 112, 113, 114, 115, 116, 117, 118, 119, 120, 121, 122, 123, 124, 125, 126, 127, 128, 129, 130, 131, 132, 133, 134, 135, 136, 137, 138, 139, 140, 141, 142, 143, 144, 145, 146, 147, 148, 149, 150, 151, 152, 153, 154, 155, 156, 157, 158, 159, 160, 161, 162, 163, 164, 165, 166, 167, 168],
      "LargestImagePixelValue": [1845, 1858, 1857, 1856, 1871, 1860, 1861, 1863, 1859, 1858, 1848, 1856, 1857, 1863, 1865, 1861, 1866, 1867, 1879, 1866, 1863, 1864, 1868, 1878, 1867, 1862, 1869, 1866, 1867, 1864, 1866, 1871, 1866, 1871, 1882, 1880, 1884, 1874, 1882, 1886, 1887, 1885, 1875, 1887, 1878, 1888, 1886, 1884, 1891, 1883, 1888, 1888, 1882, 1887, 1876, 1881, 1881, 1878, 1865, 1875, 1862, 1867, 1864, 1870, 1864, 1868, 1878, 1879, 1882, 1880, 1874, 1869, 1868, 1861, 1864, 1879, 1876, 1871, 1877, 1883, 1883, 1872, 1866, 1850, 1858, 1870, 1861, 1862, 1874, 1872, 1876, 1875, 1880, 1877, 1873, 1889, 1884, 1882, 1883, 1891, 1882, 1878, 1876, 1879, 1872, 1873, 1875, 1876, 1881, 1871, 1878, 1881, 1884, 1888, 1882, 1886, 1886, 1884, 1889, 1877, 1871, 1865, 1881, 1880, 1869, 1869, 1875, 1872, 1877, 1876, 1884, 1875, 1869, 1888, 1879, 1890, 1880, 1883, 1899, 1886, 1891, 1879, 1872, 1865, 1869, 1878, 1875, 1869, 1876, 1879, 1879, 1885, 1872, 1871, 1873, 1884, 1884, 1880, 1883, 1875, 1879, 1879, 1895, 1894, 1888, 1890, 1879, 1868],
      "WindowCenter": [646.0, 648.0, 648.0, 649.0, 650.0, 651.0, 650.0, 650.0, 650.0, 649.0, 647.0, 648.0, 648.0, 648.0, 649.0, 649.0, 650.0, 650.0, 650.0, 650.0, 649.0, 649.0, 648.0, 648.0, 647.0, 648.0, 648.0, 649.0, 649.0, 649.0, 649.0, 650.0, 650.0, 650.0, 651.0, 651.0, 650.0, 649.0, 649.0, 649.0, 649.0, 649.0, 648.0, 648.0, 649.0, 650.0, 650.0, 649.0, 650.0, 649.0, 650.0, 650.0, 650.0, 651.0, 651.0, 651.0, 651.0, 650.0, 649.0, 649.0, 648.0, 648.0, 648.0, 649.0, 649.0, 650.0, 652.0, 652.0, 652.0, 652.0, 653.0, 652.0, 651.0, 649.0, 649.0, 648.0, 648.0, 648.0, 648.0, 648.0, 649.0, 649.0, 649.0, 649.0, 649.0, 649.0, 648.0, 649.0, 650.0, 649.0, 650.0, 651.0, 650.0, 650.0, 650.0, 650.0, 650.0, 650.0, 650.0, 650.0, 651.0, 651.0, 650.0, 650.0, 649.0, 649.0, 648.0, 648.0, 648.0, 648.0, 649.0, 651.0, 652.0, 653.0, 653.0, 652.0, 652.0, 650.0, 649.0, 648.0, 648.0, 648.0, 649.0, 649.0, 649.0, 648.0, 649.0, 649.0, 648.0, 648.0, 648.0, 648.0, 647.0, 648.0, 648.0, 650.0, 649.0, 650.0, 650.0, 650.0, 651.0, 651.0, 651.0, 649.0, 648.0, 648.0, 647.0, 647.0, 648.0, 648.0, 648.0, 648.0, 649.0, 649.0, 649.0, 649.0, 648.0, 648.0, 648.0, 647.0, 648.0, 648.0, 648.0, 649.0, 649.0, 651.0, 651.0, 651.0],
      "WindowWidth": [1381.0, 1384.0, 1385.0, 1388.0, 1390.0, 1391.0, 1391.0, 1389.0, 1389.0, 1387.0, 1383.0, 1384.0, 1384.0, 1385.0, 1386.0, 1388.0, 1390.0, 1389.0, 1390.0, 1389.0, 1388.0, 1387.0, 1384.0, 1385.0, 1384.0, 1384.0, 1385.0, 1386.0, 1386.0, 1387.0, 1387.0, 1389.0, 1389.0, 1390.0, 1391.0, 1391.0, 1390.0, 1388.0, 1386.0, 1387.0, 1388.0, 1387.0, 1385.0, 1386.0, 1387.0, 1389.0, 1388.0, 1388.0, 1388.0, 1388.0, 1390.0, 1390.0, 1390.0, 1391.0, 1391.0, 1391.0, 1390.0, 1388.0, 1386.0, 1386.0, 1384.0, 1384.0, 1384.0, 1386.0, 1387.0, 1389.0, 1393.0, 1394.0, 1394.0, 1395.0, 1395.0, 1394.0, 1391.0, 1386.0, 1385.0, 1384.0, 1384.0, 1384.0, 1384.0, 1385.0, 1386.0, 1388.0, 1387.0, 1386.0, 1386.0, 1387.0, 1385.0, 1387.0, 1388.0, 1388.0, 1390.0, 1391.0, 1390.0, 1389.0, 1389.0, 1390.0, 1388.0, 1388.0, 1388.0, 1390.0, 1391.0, 1391.0, 1389.0, 1388.0, 1386.0, 1386.0, 1385.0, 1384.0, 1385.0, 1384.0, 1387.0, 1391.0, 1394.0, 1396.0, 1397.0, 1395.0, 1393.0, 1390.0, 1388.0, 1385.0, 1385.0, 1384.0, 1387.0, 1387.0, 1386.0, 1385.0, 1385.0, 1386.0, 1385.0, 1385.0, 1385.0, 1383.0, 1382.0, 1385.0, 1385.0, 1388.0, 1388.0, 1388.0, 1390.0, 1389.0, 1392.0, 1392.0, 1391.0, 1388.0, 1385.0, 1385.0, 1383.0, 1382.0, 1383.0, 1384.0, 1384.0, 1385.0, 1386.0, 1387.0, 1387.0, 1386.0, 1385.0, 1384.0, 1384.0, 1383.0, 1383.0, 1383.0, 1385.0, 1386.0, 1387.0, 1390.0, 1392.0, 1391.0]
    },
    "slices": {}
  }
}