{
  "AcquisitionMatrixPE": 74,
  "AcquisitionNumber": 1,
  "AcquisitionTime": "16:59:6.635000",
  "BandwidthPerPixelPhaseEncode": 25.497,
  "BaseResolution": 74,
  "BodyPartExamined": "BRAIN",
  "CoilCombinationMethod": "Sum of Squares",
  "ConsistencyInfo": "N4_VE11C_LATEST_20160120",
  "ConversionSoftware": "dcm2niix",
  "ConversionSoftwareVersion": "v1.0.20220720",
  "DerivedVendorReportedEchoSpacing": 0.000530004,
  "DeviceSerialNumber": "45031",
  "DwellTime": 3e-06,
  "EchoTime": 0.028,
  "EchoTrainLength": 74,
  "EffectiveEchoSpacing": 0.000530004,
  "FlipAngle": 80,
  "HeudiconvVersion": "0.12.2",
  "ImageOrientationPatientDICOM": [0.999156, 0.0396353, 0.0108184, -0.0397808, 0.999116, 0.0135837],
  "ImageOrientationText": "Tra>Cor(0.8)>Sag(0.6)",
  "ImageType": [
    "ORIGINAL",
    "PRIMARY",
    "M",
    "ND",
    "MOSAIC"
],
  "ImagingFrequency": 123.25,
  "InPlanePhaseEncodingDirectionDICOM": "COL",
  "InstitutionAddress": "Washington and Faculty Rd. - Building 25 25,Princeton,NJ,US,08540",
  "InstitutionName": "Princeton University - Neuroscience Institute",
  "InstitutionalDepartmentName": "Department",
  "MRAcquisitionType": "2D",
  "MagneticFieldStrength": 3,
  "Manufacturer": "Siemens",
  "ManufacturersModelName": "Skyra",
  "Modality": "MR",
  "MultibandAccelerationFactor": 2,
  "NonlinearGradientCorrection": false,
  "PartialFourier": 1,
  "PatientPosition": "HFS",
  "PercentPhaseFOV": 100,
  "PercentSampling": 100,
  "PhaseEncodingDirection": "j-",
  "PhaseEncodingSteps": 74,
  "PhaseResolution": 1,
  "PixelBandwidth": 2250,
  "ProcedureStepDescription": "NormaL_Robert^Tangrams",
  "ProtocolName": "func_task-PostExposure_run-01",
  "PulseSequenceDetails": "%SiemensSeq%\\ep2d_bold",
  "ReceiveCoilActiveElements": "HC1-7",
  "ReceiveCoilName": "HeadNeck_64",
  "ReconMatrixPE": 74,
  "RefLinesPE": 12,
  "RepetitionTime": 1.5,
  "SAR": 0.0863648,
  "ScanOptions": "FS",
  "ScanningSequence": "EP",
  "SequenceName": "*epfid2d1_74",
  "SequenceVariant": "SK",
  "SeriesDescription": "func_task-PostExposure_run-01",
  "SeriesNumber": 16,
  "ShimSetting": [3358, 8705, 9287, 530, 50, -377, 492, 122],
  "SliceThickness": 3,
  "SliceTiming": [0.7075, 0, 0.77, 0.0625, 0.835, 0.1275, 0.9, 0.1925, 0.965, 0.2575, 1.0275, 0.32, 1.0925, 0.385, 1.1575, 0.45, 1.2225, 0.515, 1.285, 0.5775, 1.35, 0.6425, 1.415, 0.7075, 0, 0.77, 0.0625, 0.835, 0.1275, 0.9, 0.1925, 0.965, 0.2575, 1.0275, 0.32, 1.0925, 0.385, 1.1575, 0.45, 1.2225, 0.515, 1.285, 0.5775, 1.35, 0.6425, 1.415],
  "SoftwareVersions": "syngo MR E11",
  "SpacingBetweenSlices": 3,
  "StationName": "AWP45031",
  "TaskName": "PostExposure",
  "TotalReadoutTime": 0.0386903,
  "TxRefAmp": 331.063,
  "dcmmeta_affine": [
    [-2.997467041015625, -0.11934252828359604, 0.030811283737421036, 116.17752075195312],
    [-0.11890600621700287, 2.9973483085632324, 0.042007703334093094, -123.86046600341797],
    [0.03245515376329422, -0.04075101763010025, 2.9995477199554443, -68.00714111328125],
    [0.0, 0.0, 0.0, 1.0]
],
  "dcmmeta_reorient_transform": [
    [0.0, -1.0, 0.0, 73.0],
    [1.0, 0.0, 0.0, 0.0],
    [0.0, 0.0, 1.0, 0.0],
    [0.0, 0.0, 0.0, 1.0]
],
  "dcmmeta_shape": [74, 74, 46, 173],
  "dcmmeta_slice_dim": 2,
  "dcmmeta_version": 0.6,
  "global": {
    "const": {
      "AcquisitionMatrix": [74, 0, 0, 74],
      "AngioFlag": "N",
      "BitsAllocated": 16,
      "BitsStored": 12,
      "BodyPartExamined": "BRAIN",
      "Columns": 518,
      "EchoNumbers": 1,
      "EchoTime": 28.0,
      "EchoTrainLength": 74,
      "FlipAngle": 80.0,
      "HighBit": 11,
      "ImageOrientationPatient": [0.99915564491417, 0.03963533529752, 0.01081838398257, -0.0397808439161, 0.99911609349605, 0.01358367308629],
      "ImagePositionPatient": [-746.40913272093, -786.75441049609, -87.233736660373],
      "ImageType": [
        "ORIGINAL",
        "PRIMARY",
        "M",
        "ND",
        "MOSAIC"
],
      "ImagedNucleus": "1H",
      "ImagingFrequency": 123.25032,
      "InPlanePhaseEncodingDirection": "COL",
      "MRAcquisitionType": "2D",
      "MagneticFieldStrength": 3.0,
      "Manufacturer": "SIEMENS",
      "ManufacturerModelName": "Skyra",
      "Modality": "MR",
      "NumberOfAverages": 1.0,
      "NumberOfPhaseEncodingSteps": 74,
      "PercentPhaseFieldOfView": 100.0,
      "PercentSampling": 100.0,
      "PerformedProcedureStepStartTime": "151825.145000",
      "PhotometricInterpretation": "MONOCHROME2",
      "PixelBandwidth": 2250.0,
      "PixelRepresentation": 0,
      "PixelSpacing": [3.0, 3.0],
      "ProtocolName": "func_task-PostExposure_run-01",
      "RepetitionTime": 1500.0,
      "Rows": 518,
      "SAR": 0.08636481815468,
      "SamplesPerPixel": 1,
      "ScanOptions": "FS",
      "ScanningSequence": "EP",
      "SequenceName": "*epfid2d1_74",
      "SequenceVariant": "SK",
      "SeriesDescription": "func_task-PostExposure_run-01",
      "SeriesNumber": 16,
      "SeriesTime": "165908.435000",
      "SliceLocation": -68.538059308898,
      "SliceThickness": 3.0,
      "SmallestImagePixelValue": 0,
      "SoftwareVersions": "syngo MR E11",
      "SpacingBetweenSlices": 3.0000000261389,
      "SpecificCharacterSet": "ISO_IR 100",
      "StudyID": "1",
      "StudyTime": "151824.983000",
      "TransmitCoilName": "Body",
      "VariableFlipAngleFlag": "N",
      "WindowCenterWidthExplanation": "Algo1",
      "dBdt": 0.0},
    "slices": {}
  },
  "time": {
    "samples": {
      "AcquisitionNumber": [1, 2, 3, 4, 5, 6, 7, 8, 9, 10, 11, 12, 13, 14, 15, 16, 17, 18, 19, 20, 21, 22, 23, 24, 25, 26, 27, 28, 29, 30, 31, 32, 33, 34, 35, 36, 37, 38, 39, 40, 41, 42, 43, 44, 45, 46, 47, 48, 49, 50, 51, 52, 53, 54, 55, 56, 57, 58, 59, 60, 61, 62, 63, 64, 65, 66, 67, 68, 69, 70, 71, 72, 73, 74, 75, 76, 77, 78, 79, 80, 81, 82, 83, 84, 85, 86, 87, 88, 89, 90, 91, 92, 93, 94, 95, 96, 97, 98, 99, 100, 101, 102, 103, 104, 105, 106, 107, 108, 109, 110, 111, 112, 113, 114, 115, 116, 117, 118, 119, 120, 121, 122, 123, 124, 125, 126, 127, 128, 129, 130, 131, 132, 133, 134, 135, 136, 137, 138, 139, 140, 141, 142, 143, 144, 145, 146, 147, 148, 149, 150, 151, 152, 153, 154, 155, 156, 157, 158, 159, 160, 161, 162, 163, 164, 165, 166, 167, 168, 169, 170, 171, 172, 173],
      "AcquisitionTime": ["165906.635000", "165908.135000", "165909.635000", "165911.135000", "165912.635000", "165914.135000", "165915.635000", "165917.135000", "165918.635000", "165920.135000", "165921.635000", "165923.135000", "165924.635000", "165926.135000", "165927.635000", "165929.135000", "165930.635000", "165932.135000", "165933.635000", "165935.135000", "165936.635000", "165938.135000", "165939.635000", "165941.135000", "165942.635000", "165944.135000", "165945.635000", "165947.135000", "165948.635000", "165950.135000", "165951.635000", "165953.135000", "165954.635000", "165956.135000", "165957.635000", "165959.135000", "170000.635000", "170002.135000", "170003.635000", "170005.135000", "170006.635000", "170008.135000", "170009.635000", "170011.135000", "170012.635000", "170014.135000", "170015.635000", "170017.135000", "170018.635000", "170020.135000", "170021.635000", "170023.135000", "170024.635000", "170026.135000", "170027.635000", "170029.135000", "170030.635000", "170032.135000", "170033.635000", "170035.135000", "170036.635000", "170038.135000", "170039.635000", "170041.135000", "170042.635000", "170044.135000", "170045.635000", "170047.135000", "170048.635000", "170050.135000", "170051.635000", "170053.135000", "170054.635000", "170056.135000", "170057.635000", "170059.135000", "170100.635000", "170102.135000", "170103.635000", "170105.135000", "170106.635000", "170108.135000", "170109.635000", "170111.135000", "170112.635000", "170114.135000", "170115.635000", "170117.135000", "170118.635000", "170120.135000", "170121.635000", "170123.135000", "170124.635000", "170126.135000", "170127.635000", "170129.135000", "170130.635000", "170132.135000", "170133.635000", "170135.135000", "170136.635000", "170138.135000", "170139.635000", "170141.135000", "170142.635000", "170144.135000", "170145.635000", "170147.135000", "170148.635000", "170150.135000", "170151.635000", "170153.135000", "170154.635000", "170156.135000", "170157.635000", "170159.135000", "170200.635000", "170202.135000", "170203.635000", "170205.135000", "170206.635000", "170208.135000", "170209.635000", "170211.135000", "170212.635000", "170214.135000", "170215.635000", "170217.135000", "170218.635000", "170220.135000", "170221.635000", "170223.135000", "170224.635000", "170226.135000", "170227.635000", "170229.135000", "170230.635000", "170232.135000", "170233.635000", "170235.135000", "170236.635000", "170238.135000", "170239.635000", "170241.135000", "170242.635000", "170244.135000", "170245.635000", "170247.135000", "170248.635000", "170250.135000", "170251.635000", "170253.135000", "170254.635000", "170256.135000", "170257.635000", "170259.135000", "170300.635000", "170302.135000", "170303.635000", "170305.135000", "170306.635000", "170308.135000", "170309.635000", "170311.135000", "170312.635000", "170314.135000", "170315.635000", "170317.135000", "170318.635000", "170320.135000", "170321.635000", "170323.135000", "170324.635000"],
      "ContentTime": ["165908.439000", "165909.934000", "165911.434000", "165912.934000", "165914.433000", "165915.933000", "165917.433000", "165918.933000", "165920.433000", "165921.933000", "165923.433000", "165924.933000", "165926.434000", "165927.934000", "165929.434000", "165930.949000", "165932.433000", "165933.933000", "165935.433000", "165936.933000", "165938.433000", "165939.933000", "165941.433000", "165942.934000", "165944.434000", "165945.934000", "165947.434000", "165948.934000", "165950.433000", "165951.933000", "165953.433000", "165954.933000", "165956.433000", "165957.933000", "165959.433000", "170000.934000", "170002.434000", "170003.934000", "170005.434000", "170006.933000", "170008.433000", "170009.933000", "170011.433000", "170012.933000", "170014.433000", "170015.933000", "170017.433000", "170018.934000", "170020.434000", "170021.934000", "170023.434000", "170024.933000", "170026.433000", "170027.933000", "170029.433000", "170030.933000", "170032.433000", "170033.933000", "170035.434000", "170036.934000", "170038.434000", "170039.934000", "170041.434000", "170042.933000", "170044.433000", "170045.933000", "170047.433000", "170048.933000", "170050.433000", "170051.933000", "170053.434000", "170054.934000", "170056.434000", "170057.934000", "170059.433000", "170100.933000", "170102.433000", "170103.933000", "170105.433000", "170106.933000", "170108.433000", "170109.933000", "170111.434000", "170112.934000", "170114.434000", "170115.934000", "170117.433000", "170118.933000", "170120.433000", "170121.933000", "170123.433000", "170124.933000", "170126.433000", "170127.934000", "170129.434000", "170130.934000", "170132.434000", "170133.934000", "170135.433000", "170136.933000", "170138.433000", "170139.933000", "170141.433000", "170142.933000", "170144.433000", "170145.934000", "170147.434000", "170148.934000", "170150.434000", "170151.933000", "170153.433000", "170154.933000", "170156.433000", "170157.933000", "170159.433000", "170200.933000", "170202.433000", "170203.934000", "170205.434000", "170206.934000", "170208.434000", "170209.933000", "170211.433000", "170212.933000", "170214.433000", "170215.933000", "170217.433000", "170218.933000", "170220.434000", "170221.934000", "170223.434000", "170224.934000", "170226.434000", "170227.933000", "170229.433000", "170230.933000", "170232.433000", "170233.933000", "170235.433000", "170236.933000", "170238.434000", "170239.954000", "170241.434000", "170242.934000", "170244.433000", "170245.933000", "170247.433000", "170248.933000", "170250.433000", "170251.933000", "170253.433000", "170254.934000", "170256.434000", "170257.934000", "170259.434000", "170300.934000", "170302.433000", "170303.933000", "170305.433000", "170306.933000", "170308.433000", "170309.933000", "170311.433000", "170312.934000", "170314.434000", "170315.934000", "170317.434000", "170318.934000", "170320.433000", "170321.933000", "170323.433000", "170324.933000", "170326.433000"],
      "InstanceCreationTime": ["165908.439000", "165909.934000", "165911.434000", "165912.934000", "165914.433000", "165915.933000", "165917.433000", "165918.933000", "165920.433000", "165921.933000", "165923.433000", "165924.933000", "165926.434000", "165927.934000", "165929.434000", "165930.949000", "165932.433000", "165933.933000", "165935.433000", "165936.933000", "165938.433000", "165939.933000", "165941.433000", "165942.934000", "165944.434000", "165945.934000", "165947.434000", "165948.934000", "165950.433000", "165951.933000", "165953.433000", "165954.933000", "165956.433000", "165957.933000", "165959.433000", "170000.934000", "170002.434000", "170003.934000", "170005.434000", "170006.933000", "170008.433000", "170009.933000", "170011.433000", "170012.933000", "170014.433000", "170015.933000", "170017.433000", "170018.934000", "170020.434000", "170021.934000", "170023.434000", "170024.933000", "170026.433000", "170027.933000", "170029.433000", "170030.933000", "170032.433000", "170033.933000", "170035.434000", "170036.934000", "170038.434000", "170039.934000", "170041.434000", "170042.933000", "170044.433000", "170045.933000", "170047.433000", "170048.933000", "170050.433000", "170051.933000", "170053.434000", "170054.934000", "170056.434000", "170057.934000", "170059.433000", "170100.933000", "170102.433000", "170103.933000", "170105.433000", "170106.933000", "170108.433000", "170109.933000", "170111.434000", "170112.934000", "170114.434000", "170115.934000", "170117.433000", "170118.933000", "170120.433000", "170121.933000", "170123.433000", "170124.933000", "170126.433000", "170127.934000", "170129.434000", "170130.934000", "170132.434000", "170133.934000", "170135.433000", "170136.933000", "170138.433000", "170139.933000", "170141.433000", "170142.933000", "170144.433000", "170145.934000", "170147.434000", "170148.934000", "170150.434000", "170151.933000", "170153.433000", "170154.933000", "170156.433000", "170157.933000", "170159.433000", "170200.933000", "170202.433000", "170203.934000", "170205.434000", "170206.934000", "170208.434000", "170209.933000", "170211.433000", "170212.933000", "170214.433000", "170215.933000", "170217.433000", "170218.933000", "170220.434000", "170221.934000", "170223.434000", "170224.934000", "170226.434000", "170227.933000", "170229.433000", "170230.933000", "170232.433000", "170233.933000", "170235.433000", "170236.933000", "170238.434000", "170239.954000", "170241.434000", "170242.934000", "170244.433000", "170245.933000", "170247.433000", "170248.933000", "170250.433000", "170251.933000", "170253.433000", "170254.934000", "170256.434000", "170257.934000", "170259.434000", "170300.934000", "170302.433000", "170303.933000", "170305.433000", "170306.933000", "170308.433000", "170309.933000", "170311.433000", "170312.934000", "170314.434000", "170315.934000", "170317.434000", "170318.934000", "170320.433000", "170321.933000", "170323.433000", "170324.933000", "170326.433000"],
      "InstanceNumber": [1, 2, 3, 4, 5, 6, 7, 8, 9, 10, 11, 12, 13, 14, 15, 16, 17, 18, 19, 20, 21, 22, 23, 24, 25, 26, 27, 28, 29, 30, 31, 32, 33, 34, 35, 36, 37, 38, 39, 40, 41, 42, 43, 44, 45, 46, 47, 48, 49, 50, 51, 52, 53, 54, 55, 56, 57, 58, 59, 60, 61, 62, 63, 64, 65, 66, 67, 68, 69, 70, 71, 72, 73, 74, 75, 76, 77, 78, 79, 80, 81, 82, 83, 84, 85, 86, 87, 88, 89, 90, 91, 92, 93, 94, 95, 96, 97, 98, 99, 100, 101, 102, 103, 104, 105, 106, 107, 108, 109, 110, 111, 112, 113, 114, 115, 116, 117, 118, 119, 120, 121, 122, 123, 124, 125, 126, 127, 128, 129, 130, 131, 132, 133, 134, 135, 136, 137, 138, 139, 140, 141, 142, 143, 144, 145, 146, 147, 148, 149, 150, 151, 152, 153, 154, 155, 156, 157, 158, 159, 160, 161, 162, 163, 164, 165, 166, 167, 168, 169, 170, 171, 172, 173],
      "LargestImagePixelValue": [2098, 2079, 2073, 2070, 2066, 2063, 2059, 2061, 2057, 2070, 2061, 2069, 2061, 2070, 2065, 2072, 2070, 2069, 2068, 2067, 2072, 2071, 2067, 2069, 2075, 2067, 2061, 2061, 2067, 2075, 2081, 2071, 2071, 2071, 2070, 2062, 2069, 2076, 2064, 2070, 2078, 2054, 2063, 2069, 2067, 2059, 2053, 2062, 2063, 2062, 2066, 2065, 2071, 2067, 2075, 2081, 2073, 2063, 2066, 2066, 2060, 2062, 2067, 2071, 2063, 2083, 2074, 2070, 2076, 2090, 2078, 2071, 2058, 2059, 2070, 2065, 2061, 2065, 2064, 2063, 2068, 2070, 2054, 2069, 2071, 2061, 2063, 2071, 2070, 2071, 2069, 2075, 2068, 2067, 2065, 2068, 2072, 2075, 2084, 2074, 2079, 2075, 2080, 2070, 2077, 2071, 2063, 2078, 2069, 2065, 2068, 2070, 2078, 2077, 2065, 2071, 2073, 2073, 2063, 2071, 2064, 2066, 2065, 2054, 2066, 2072, 2066, 2068, 2062, 2062, 2065, 2060, 2063, 2064, 2076, 2064, 2069, 2080, 2084, 2072, 2075, 2067, 2067, 2067, 2076, 2069, 2065, 2076, 2065, 2072, 2065, 2061, 2069, 2071, 2073, 2078, 2065, 2083, 2076, 2072, 2071, 2070, 2077, 2069, 2078, 2073, 2076, 2079, 2078, 2071, 2073, 2067, 2066],
      "WindowCenter": [645.0, 644.0, 644.0, 645.0, 645.0, 645.0, 644.0, 645.0, 644.0, 643.0, 643.0, 644.0, 645.0, 645.0, 644.0, 644.0, 644.0, 644.0, 644.0, 643.0, 644.0, 644.0, 644.0, 644.0, 644.0, 644.0, 644.0, 644.0, 644.0, 644.0, 645.0, 646.0, 645.0, 644.0, 643.0, 644.0, 645.0, 645.0, 644.0, 645.0, 645.0, 644.0, 644.0, 644.0, 645.0, 645.0, 644.0, 644.0, 645.0, 645.0, 645.0, 644.0, 644.0, 644.0, 644.0, 645.0, 645.0, 645.0, 645.0, 644.0, 644.0, 644.0, 645.0, 646.0, 645.0, 645.0, 644.0, 644.0, 645.0, 645.0, 645.0, 645.0, 644.0, 644.0, 645.0, 644.0, 643.0, 644.0, 645.0, 644.0, 642.0, 641.0, 640.0, 640.0, 642.0, 644.0, 645.0, 645.0, 644.0, 644.0, 644.0, 645.0, 645.0, 645.0, 645.0, 645.0, 645.0, 646.0, 646.0, 646.0, 646.0, 645.0, 646.0, 645.0, 646.0, 646.0, 646.0, 646.0, 645.0, 645.0, 646.0, 648.0, 647.0, 646.0, 645.0, 645.0, 646.0, 646.0, 646.0, 646.0, 645.0, 645.0, 645.0, 645.0, 645.0, 645.0, 645.0, 645.0, 646.0, 645.0, 645.0, 644.0, 644.0, 644.0, 645.0, 644.0, 644.0, 645.0, 645.0, 645.0, 644.0, 644.0, 645.0, 646.0, 646.0, 645.0, 645.0, 645.0, 644.0, 645.0, 644.0, 644.0, 644.0, 645.0, 645.0, 645.0, 645.0, 645.0, 646.0, 646.0, 645.0, 645.0, 644.0, 644.0, 645.0, 646.0, 646.0, 647.0, 647.0, 647.0, 647.0, 646.0, 646.0],
      "WindowWidth": [1392.0, 1388.0, 1389.0, 1391.0, 1391.0, 1390.0, 1389.0, 1390.0, 1387.0, 1385.0, 1386.0, 1389.0, 1390.0, 1391.0, 1389.0, 1387.0, 1389.0, 1388.0, 1387.0, 1387.0, 1388.0, 1389.0, 1387.0, 1387.0, 1388.0, 1387.0, 1388.0, 1387.0, 1388.0, 1389.0, 1391.0, 1392.0, 1390.0, 1388.0, 1387.0, 1388.0, 1390.0, 1391.0, 1389.0, 1390.0, 1390.0, 1389.0, 1389.0, 1390.0, 1390.0, 1390.0, 1389.0, 1390.0, 1391.0, 1392.0, 1391.0, 1389.0, 1389.0, 1387.0, 1389.0, 1391.0, 1391.0, 1391.0, 1391.0, 1390.0, 1389.0, 1390.0, 1391.0, 1392.0, 1391.0, 1390.0, 1389.0, 1388.0, 1390.0, 1392.0, 1391.0, 1390.0, 1389.0, 1389.0, 1391.0, 1389.0, 1386.0, 1388.0, 1391.0, 1388.0, 1383.0, 1381.0, 1380.0, 1380.0, 1384.0, 1387.0, 1390.0, 1390.0, 1389.0, 1388.0, 1389.0, 1391.0, 1391.0, 1390.0, 1391.0, 1390.0, 1391.0, 1392.0, 1393.0, 1394.0, 1393.0, 1392.0, 1392.0, 1392.0, 1392.0, 1394.0, 1394.0, 1393.0, 1390.0, 1390.0, 1394.0, 1397.0, 1396.0, 1394.0, 1391.0, 1390.0, 1392.0, 1394.0, 1393.0, 1393.0, 1392.0, 1392.0, 1392.0, 1392.0, 1391.0, 1392.0, 1390.0, 1391.0, 1393.0, 1392.0, 1390.0, 1389.0, 1389.0, 1389.0, 1391.0, 1388.0, 1388.0, 1390.0, 1391.0, 1390.0, 1389.0, 1389.0, 1391.0, 1393.0, 1392.0, 1391.0, 1390.0, 1391.0, 1390.0, 1391.0, 1390.0, 1389.0, 1389.0, 1391.0, 1391.0, 1391.0, 1391.0, 1392.0, 1394.0, 1392.0, 1391.0, 1390.0, 1389.0, 1388.0, 1391.0, 1393.0, 1394.0, 1395.0, 1395.0, 1396.0, 1395.0, 1394.0, 1392.0]
    },
    "slices": {}
  }
}