{
  "AcquisitionMatrixPE": 74,
  "AcquisitionNumber": 1,
  "AcquisitionTime": "13:07:20.570000",
  "BandwidthPerPixelPhaseEncode": 25.497,
  "BaseResolution": 74,
  "BodyPartExamined": "BRAIN",
  "ConsistencyInfo": "N4_VE11C_LATEST_20160120",
  "ConversionSoftware": "dcm2niix",
  "ConversionSoftwareVersion": "v1.0.20190410  GCC6.3.0",
  "DerivedVendorReportedEchoSpacing": 0.000530004,
  "DeviceSerialNumber": "45031",
  "DwellTime": 3e-06,
  "EchoTime": 0.028,
  "EchoTrainLength": 74,
  "EffectiveEchoSpacing": 0.000530004,
  "FlipAngle": 80,
  "ImageOrientationPatientDICOM": [0.999836, -0.0025321, -0.0179121, 0.00104702, 0.996596, -0.0824372],
  "ImageType": [
    "ORIGINAL",
    "PRIMARY",
    "M",
    "ND",
    "MOSAIC"
],
  "ImagingFrequency": 123.25,
  "InPlanePhaseEncodingDirectionDICOM": "COL",
  "InstitutionAddress": "Washington_and_Faculty_Rd._-_Building_25_25_Princeton_NJ_US_08540",
  "InstitutionName": "Princeton_University_-_Neuroscience_Institute",
  "InstitutionalDepartmentName": "Department",
  "MRAcquisitionType": "2D",
  "MagneticFieldStrength": 3,
  "Manufacturer": "Siemens",
  "ManufacturersModelName": "Skyra",
  "Modality": "MR",
  "MultibandAccelerationFactor": 2,
  "PartialFourier": 1,
  "PatientPosition": "HFS",
  "PercentPhaseFOV": 100,
  "PhaseEncodingDirection": "j-",
  "PhaseEncodingSteps": 74,
  "PhaseResolution": 1,
  "PixelBandwidth": 2250,
  "ProcedureStepDescription": "NormaL_Robert_Tangrams",
  "ProtocolName": "func_task-PostExposure_run-01",
  "PulseSequenceDetails": "%SiemensSeq%_ep2d_bold",
  "ReceiveCoilActiveElements": "HC1-7",
  "ReceiveCoilName": "HeadNeck_64",
  "ReconMatrixPE": 74,
  "RefLinesPE": 12,
  "RepetitionTime": 1.5,
  "SAR": 0.0750046,
  "ScanOptions": "FS",
  "ScanningSequence": "EP",
  "SequenceName": "_epfid2d1_74",
  "SequenceVariant": "SK",
  "SeriesDescription": "func_task-PostExposure_run-01",
  "SeriesNumber": 17,
  "ShimSetting": [3379, 8757, 9178, 646, 135, -414, 89, 262],
  "SliceThickness": 3,
  "SliceTiming": [0.7075, 0, 0.7725, 0.065, 0.835, 0.1275, 0.9, 0.1925, 0.965, 0.2575, 1.03, 0.32, 1.0925, 0.385, 1.1575, 0.45, 1.2225, 0.515, 1.2875, 0.5775, 1.35, 0.6425, 1.415, 0.7075, 0, 0.7725, 0.065, 0.835, 0.1275, 0.9, 0.1925, 0.965, 0.2575, 1.03, 0.32, 1.0925, 0.385, 1.1575, 0.45, 1.2225, 0.515, 1.2875, 0.5775, 1.35, 0.6425, 1.415],
  "SoftwareVersions": "syngo_MR_E11",
  "SpacingBetweenSlices": 3,
  "StationName": "AWP45031",
  "TaskName": "PostExposure",
  "TotalReadoutTime": 0.0386903,
  "TxRefAmp": 297.782,
  "dcmmeta_affine": [
    [-2.99950909614563, 0.003141064429655671, -0.05417967960238457, 110.73130798339844],
    [0.007596289739012718, 2.9897871017456055, -0.24721494317054749, -125.06092834472656],
    [-0.05373639613389969, 0.24731168150901794, 2.9893057346343994, -77.60079956054688],
    [0.0, 0.0, 0.0, 1.0]
],
  "dcmmeta_reorient_transform": [
    [0.0, -1.0, 0.0, 73.0],
    [1.0, 0.0, 0.0, 0.0],
    [0.0, 0.0, 1.0, 0.0],
    [0.0, 0.0, 0.0, 1.0]
],
  "dcmmeta_shape": [74, 74, 46, 169],
  "dcmmeta_slice_dim": 2,
  "dcmmeta_version": 0.6,
  "global": {
    "const": {
      "AcquisitionMatrix": [74, 0, 0, 74],
      "AngioFlag": "N",
      "BitsAllocated": 16,
      "BitsStored": 12,
      "BodyPartExamined": "BRAIN",
      "Columns": 518,
      "EchoNumbers": 1,
      "EchoTime": 28.0,
      "EchoTrainLength": 74,
      "FlipAngle": 80.0,
      "HighBit": 11,
      "ImageOrientationPatient": [0.99983635861708, -0.0025320966404, -0.0179121320321, 0.00104702151209, 0.99659570918475, -0.0824372256963],
      "ImagePositionPatient": [-777.54893751307, -755.23989925225, 7.28562179238],
      "ImageType": [
        "ORIGINAL",
        "PRIMARY",
        "M",
        "ND",
        "MOSAIC"
],
      "ImagedNucleus": "1H",
      "ImagingFrequency": 123.2503,
      "InPlanePhaseEncodingDirection": "COL",
      "MRAcquisitionType": "2D",
      "MagneticFieldStrength": 3.0,
      "Manufacturer": "SIEMENS",
      "ManufacturerModelName": "Skyra",
      "Modality": "MR",
      "NumberOfAverages": 1.0,
      "NumberOfPhaseEncodingSteps": 74,
      "PercentPhaseFieldOfView": 100.0,
      "PercentSampling": 100.0,
      "PerformedProcedureStepStartTime": "112019.153000",
      "PhotometricInterpretation": "MONOCHROME2",
      "PixelBandwidth": 2250.0,
      "PixelRepresentation": 0,
      "PixelSpacing": [3.0, 3.0],
      "ProtocolName": "func_task-PostExposure_run-01",
      "RepetitionTime": 1500.0,
      "Rows": 518,
      "SAR": 0.07500458550033,
      "SamplesPerPixel": 1,
      "ScanOptions": "FS",
      "ScanningSequence": "EP",
      "SequenceName": "*epfid2d1_74",
      "SequenceVariant": "SK",
      "SeriesDescription": "func_task-PostExposure_run-01",
      "SeriesNumber": 17,
      "SeriesTime": "130722.291000",
      "SliceLocation": -69.018329685843,
      "SliceThickness": 3.0,
      "SmallestImagePixelValue": 0,
      "SoftwareVersions": "syngo MR E11",
      "SpacingBetweenSlices": 2.9999999673284,
      "SpecificCharacterSet": "ISO_IR 100",
      "StudyID": "1",
      "StudyTime": "112019.073000",
      "TransmitCoilName": "Body",
      "VariableFlipAngleFlag": "N",
      "WindowCenterWidthExplanation": "Algo1",
      "dBdt": 0.0},
    "slices": {}
  },
  "time": {
    "samples": {
      "AcquisitionNumber": [1, 2, 3, 4, 5, 6, 7, 8, 9, 10, 11, 12, 13, 14, 15, 16, 17, 18, 19, 20, 21, 22, 23, 24, 25, 26, 27, 28, 29, 30, 31, 32, 33, 34, 35, 36, 37, 38, 39, 40, 41, 42, 43, 44, 45, 46, 47, 48, 49, 50, 51, 52, 53, 54, 55, 56, 57, 58, 59, 60, 61, 62, 63, 64, 65, 66, 67, 68, 69, 70, 71, 72, 73, 74, 75, 76, 77, 78, 79, 80, 81, 82, 83, 84, 85, 86, 87, 88, 89, 90, 91, 92, 93, 94, 95, 96, 97, 98, 99, 100, 101, 102, 103, 104, 105, 106, 107, 108, 109, 110, 111, 112, 113, 114, 115, 116, 117, 118, 119, 120, 121, 122, 123, 124, 125, 126, 127, 128, 129, 130, 131, 132, 133, 134, 135, 136, 137, 138, 139, 140, 141, 142, 143, 144, 145, 146, 147, 148, 149, 150, 151, 152, 153, 154, 155, 156, 157, 158, 159, 160, 161, 162, 163, 164, 165, 166, 167, 168, 169],
      "AcquisitionTime": ["130720.570000", "130722.070000", "130723.570000", "130725.070000", "130726.570000", "130728.070000", "130729.570000", "130731.070000", "130732.570000", "130734.070000", "130735.570000", "130737.070000", "130738.570000", "130740.070000", "130741.570000", "130743.070000", "130744.570000", "130746.070000", "130747.570000", "130749.070000", "130750.570000", "130752.070000", "130753.570000", "130755.070000", "130756.570000", "130758.070000", "130759.570000", "130801.070000", "130802.570000", "130804.070000", "130805.570000", "130807.070000", "130808.570000", "130810.070000", "130811.570000", "130813.070000", "130814.570000", "130816.070000", "130817.570000", "130819.070000", "130820.570000", "130822.070000", "130823.570000", "130825.070000", "130826.570000", "130828.070000", "130829.570000", "130831.070000", "130832.570000", "130834.070000", "130835.570000", "130837.070000", "130838.570000", "130840.070000", "130841.570000", "130843.070000", "130844.570000", "130846.070000", "130847.570000", "130849.070000", "130850.570000", "130852.070000", "130853.570000", "130855.070000", "130856.570000", "130858.070000", "130859.570000", "130901.070000", "130902.570000", "130904.070000", "130905.570000", "130907.070000", "130908.570000", "130910.070000", "130911.570000", "130913.070000", "130914.570000", "130916.070000", "130917.570000", "130919.070000", "130920.570000", "130922.070000", "130923.570000", "130925.070000", "130926.570000", "130928.070000", "130929.570000", "130931.070000", "130932.570000", "130934.070000", "130935.570000", "130937.070000", "130938.570000", "130940.070000", "130941.570000", "130943.070000", "130944.570000", "130946.070000", "130947.570000", "130949.070000", "130950.570000", "130952.070000", "130953.570000", "130955.070000", "130956.570000", "130958.070000", "130959.570000", "131001.070000", "131002.570000", "131004.070000", "131005.570000", "131007.070000", "131008.570000", "131010.070000", "131011.570000", "131013.070000", "131014.570000", "131016.070000", "131017.570000", "131019.070000", "131020.570000", "131022.070000", "131023.570000", "131025.070000", "131026.570000", "131028.070000", "131029.570000", "131031.070000", "131032.570000", "131034.070000", "131035.570000", "131037.070000", "131038.570000", "131040.070000", "131041.570000", "131043.070000", "131044.570000", "131046.070000", "131047.570000", "131049.070000", "131050.570000", "131052.070000", "131053.570000", "131055.070000", "131056.570000", "131058.070000", "131059.570000", "131101.070000", "131102.570000", "131104.070000", "131105.570000", "131107.070000", "131108.570000", "131110.070000", "131111.570000", "131113.070000", "131114.570000", "131116.070000", "131117.570000", "131119.070000", "131120.570000", "131122.070000", "131123.570000", "131125.070000", "131126.570000", "131128.070000", "131129.570000", "131131.070000", "131132.570000"],
      "ContentTime": ["130722.295000", "130723.778000", "130725.279000", "130726.778000", "130728.278000", "130729.778000", "130731.278000", "130732.777000", "130734.278000", "130735.778000", "130737.278000", "130738.778000", "130740.278000", "130741.782000", "130743.279000", "130744.778000", "130746.278000", "130747.778000", "130749.278000", "130750.778000", "130752.278000", "130753.778000", "130755.278000", "130756.778000", "130758.278000", "130759.779000", "130801.278000", "130802.778000", "130804.278000", "130805.778000", "130807.278000", "130808.778000", "130810.278000", "130811.778000", "130813.278000", "130814.778000", "130816.278000", "130817.779000", "130819.278000", "130820.778000", "130822.278000", "130823.778000", "130825.278000", "130826.778000", "130828.278000", "130829.778000", "130831.278000", "130832.778000", "130834.278000", "130835.779000", "130837.278000", "130838.778000", "130840.278000", "130841.778000", "130843.278000", "130844.778000", "130846.278000", "130847.778000", "130849.278000", "130850.778000", "130852.279000", "130853.778000", "130855.278000", "130856.778000", "130858.278000", "130859.778000", "130901.278000", "130902.778000", "130904.278000", "130905.778000", "130907.278000", "130908.778000", "130910.279000", "130911.778000", "130913.278000", "130914.778000", "130916.278000", "130917.778000", "130919.278000", "130920.778000", "130922.278000", "130923.778000", "130925.278000", "130926.778000", "130928.279000", "130929.778000", "130931.278000", "130932.777000", "130934.277000", "130935.778000", "130937.278000", "130938.778000", "130940.278000", "130941.778000", "130943.278000", "130944.779000", "130946.278000", "130947.777000", "130949.278000", "130950.778000", "130952.278000", "130953.778000", "130955.278000", "130956.778000", "130958.278000", "130959.778000", "131001.278000", "131002.778000", "131004.278000", "131005.777000", "131007.278000", "131008.778000", "131010.278000", "131011.778000", "131013.278000", "131014.778000", "131016.278000", "131017.778000", "131019.279000", "131020.779000", "131022.278000", "131023.778000", "131025.278000", "131026.778000", "131028.278000", "131029.777000", "131031.278000", "131032.778000", "131034.278000", "131035.778000", "131037.279000", "131038.798000", "131040.278000", "131041.778000", "131043.278000", "131044.778000", "131046.278000", "131047.778000", "131049.278000", "131050.778000", "131052.278000", "131053.778000", "131055.279000", "131056.778000", "131058.278000", "131059.778000", "131101.278000", "131102.778000", "131104.277000", "131105.778000", "131107.278000", "131108.778000", "131110.278000", "131111.779000", "131113.279000", "131114.778000", "131116.278000", "131117.778000", "131119.278000", "131120.778000", "131122.278000", "131123.778000", "131125.278000", "131126.778000", "131128.278000", "131129.779000", "131131.278000", "131132.778000", "131134.240000"],
      "InstanceCreationTime": ["130722.295000", "130723.778000", "130725.279000", "130726.778000", "130728.278000", "130729.778000", "130731.278000", "130732.777000", "130734.278000", "130735.778000", "130737.278000", "130738.778000", "130740.278000", "130741.782000", "130743.279000", "130744.778000", "130746.278000", "130747.778000", "130749.278000", "130750.778000", "130752.278000", "130753.778000", "130755.278000", "130756.778000", "130758.278000", "130759.779000", "130801.278000", "130802.778000", "130804.278000", "130805.778000", "130807.278000", "130808.778000", "130810.278000", "130811.778000", "130813.278000", "130814.778000", "130816.278000", "130817.779000", "130819.278000", "130820.778000", "130822.278000", "130823.778000", "130825.278000", "130826.778000", "130828.278000", "130829.778000", "130831.278000", "130832.778000", "130834.278000", "130835.779000", "130837.278000", "130838.778000", "130840.278000", "130841.778000", "130843.278000", "130844.778000", "130846.278000", "130847.778000", "130849.278000", "130850.778000", "130852.279000", "130853.778000", "130855.278000", "130856.778000", "130858.278000", "130859.778000", "130901.278000", "130902.778000", "130904.278000", "130905.778000", "130907.278000", "130908.778000", "130910.279000", "130911.778000", "130913.278000", "130914.778000", "130916.278000", "130917.778000", "130919.278000", "130920.778000", "130922.278000", "130923.778000", "130925.278000", "130926.778000", "130928.279000", "130929.778000", "130931.278000", "130932.777000", "130934.277000", "130935.778000", "130937.278000", "130938.778000", "130940.278000", "130941.778000", "130943.278000", "130944.779000", "130946.278000", "130947.777000", "130949.278000", "130950.778000", "130952.278000", "130953.778000", "130955.278000", "130956.778000", "130958.278000", "130959.778000", "131001.278000", "131002.778000", "131004.278000", "131005.777000", "131007.278000", "131008.778000", "131010.278000", "131011.778000", "131013.278000", "131014.778000", "131016.278000", "131017.778000", "131019.279000", "131020.779000", "131022.278000", "131023.778000", "131025.278000", "131026.778000", "131028.278000", "131029.777000", "131031.278000", "131032.778000", "131034.278000", "131035.778000", "131037.279000", "131038.798000", "131040.278000", "131041.778000", "131043.278000", "131044.778000", "131046.278000", "131047.778000", "131049.278000", "131050.778000", "131052.278000", "131053.778000", "131055.279000", "131056.778000", "131058.278000", "131059.778000", "131101.278000", "131102.778000", "131104.277000", "131105.778000", "131107.278000", "131108.778000", "131110.278000", "131111.779000", "131113.279000", "131114.778000", "131116.278000", "131117.778000", "131119.278000", "131120.778000", "131122.278000", "131123.778000", "131125.278000", "131126.778000", "131128.278000", "131129.779000", "131131.278000", "131132.778000", "131134.240000"],
      "InstanceNumber": [1, 2, 3, 4, 5, 6, 7, 8, 9, 10, 11, 12, 13, 14, 15, 16, 17, 18, 19, 20, 21, 22, 23, 24, 25, 26, 27, 28, 29, 30, 31, 32, 33, 34, 35, 36, 37, 38, 39, 40, 41, 42, 43, 44, 45, 46, 47, 48, 49, 50, 51, 52, 53, 54, 55, 56, 57, 58, 59, 60, 61, 62, 63, 64, 65, 66, 67, 68, 69, 70, 71, 72, 73, 74, 75, 76, 77, 78, 79, 80, 81, 82, 83, 84, 85, 86, 87, 88, 89, 90, 91, 92, 93, 94, 95, 96, 97, 98, 99, 100, 101, 102, 103, 104, 105, 106, 107, 108, 109, 110, 111, 112, 113, 114, 115, 116, 117, 118, 119, 120, 121, 122, 123, 124, 125, 126, 127, 128, 129, 130, 131, 132, 133, 134, 135, 136, 137, 138, 139, 140, 141, 142, 143, 144, 145, 146, 147, 148, 149, 150, 151, 152, 153, 154, 155, 156, 157, 158, 159, 160, 161, 162, 163, 164, 165, 166, 167, 168, 169],
      "LargestImagePixelValue": [1751, 1738, 1743, 1747, 1763, 1751, 1754, 1763, 1737, 1757, 1748, 1744, 1764, 1758, 1750, 1742, 1745, 1744, 1746, 1750, 1754, 1757, 1757, 1769, 1753, 1756, 1750, 1740, 1755, 1751, 1752, 1741, 1753, 1751, 1759, 1740, 1743, 1737, 1743, 1738, 1734, 1744, 1743, 1735, 1737, 1745, 1740, 1731, 1733, 1734, 1723, 1743, 1733, 1726, 1739, 1737, 1723, 1734, 1731, 1731, 1734, 1734, 1750, 1749, 1757, 1746, 1739, 1734, 1732, 1735, 1735, 1738, 1739, 1737, 1739, 1744, 1734, 1737, 1737, 1742, 1732, 1739, 1744, 1740, 1740, 1739, 1742, 1744, 1751, 1739, 1746, 1751, 1751, 1749, 1751, 1755, 1754, 1752, 1740, 1729, 1734, 1732, 1720, 1732, 1726, 1733, 1732, 1731, 1720, 1724, 1725, 1727, 1735, 1739, 1747, 1746, 1750, 1745, 1765, 1754, 1755, 1737, 1750, 1737, 1744, 1743, 1755, 1749, 1744, 1731, 1749, 1749, 1749, 1753, 1753, 1762, 1767, 1765, 1765, 1767, 1763, 1757, 1760, 1756, 1745, 1746, 1753, 1750, 1754, 1756, 1767, 1760, 1767, 1757, 1764, 1770, 1763, 1767, 1762, 1761, 1754, 1768, 1763, 1775, 1753, 1760, 1760, 1765, 1765],
      "WindowCenter": [613.0, 613.0, 612.0, 612.0, 613.0, 613.0, 612.0, 613.0, 612.0, 613.0, 612.0, 612.0, 613.0, 613.0, 613.0, 612.0, 612.0, 612.0, 612.0, 612.0, 612.0, 613.0, 612.0, 612.0, 612.0, 612.0, 613.0, 612.0, 613.0, 613.0, 613.0, 612.0, 613.0, 612.0, 612.0, 612.0, 612.0, 612.0, 612.0, 612.0, 612.0, 612.0, 612.0, 612.0, 612.0, 612.0, 611.0, 611.0, 611.0, 611.0, 611.0, 612.0, 612.0, 611.0, 612.0, 612.0, 612.0, 612.0, 612.0, 612.0, 612.0, 612.0, 613.0, 612.0, 612.0, 612.0, 612.0, 612.0, 613.0, 613.0, 612.0, 613.0, 612.0, 612.0, 612.0, 612.0, 612.0, 612.0, 612.0, 612.0, 613.0, 613.0, 612.0, 612.0, 612.0, 612.0, 612.0, 612.0, 613.0, 612.0, 612.0, 613.0, 613.0, 612.0, 613.0, 613.0, 612.0, 612.0, 612.0, 611.0, 612.0, 612.0, 611.0, 612.0, 611.0, 612.0, 612.0, 611.0, 610.0, 610.0, 612.0, 612.0, 612.0, 612.0, 612.0, 612.0, 612.0, 612.0, 612.0, 612.0, 612.0, 611.0, 611.0, 610.0, 611.0, 611.0, 611.0, 610.0, 610.0, 610.0, 610.0, 612.0, 612.0, 612.0, 612.0, 612.0, 612.0, 612.0, 611.0, 612.0, 611.0, 611.0, 612.0, 611.0, 611.0, 611.0, 611.0, 611.0, 611.0, 611.0, 612.0, 611.0, 611.0, 611.0, 611.0, 612.0, 611.0, 611.0, 611.0, 611.0, 611.0, 611.0, 611.0, 612.0, 611.0, 611.0, 611.0, 611.0, 611.0],
      "WindowWidth": [1306.0, 1305.0, 1303.0, 1304.0, 1304.0, 1304.0, 1303.0, 1304.0, 1303.0, 1304.0, 1303.0, 1303.0, 1304.0, 1304.0, 1304.0, 1303.0, 1302.0, 1302.0, 1302.0, 1302.0, 1303.0, 1303.0, 1303.0, 1303.0, 1303.0, 1303.0, 1304.0, 1302.0, 1304.0, 1304.0, 1304.0, 1303.0, 1304.0, 1303.0, 1303.0, 1302.0, 1302.0, 1302.0, 1303.0, 1302.0, 1303.0, 1303.0, 1303.0, 1303.0, 1303.0, 1302.0, 1301.0, 1301.0, 1300.0, 1300.0, 1300.0, 1302.0, 1302.0, 1301.0, 1302.0, 1303.0, 1303.0, 1303.0, 1303.0, 1302.0, 1302.0, 1302.0, 1304.0, 1302.0, 1303.0, 1303.0, 1304.0, 1304.0, 1305.0, 1304.0, 1304.0, 1304.0, 1303.0, 1303.0, 1302.0, 1302.0, 1302.0, 1302.0, 1303.0, 1303.0, 1304.0, 1304.0, 1303.0, 1303.0, 1302.0, 1302.0, 1303.0, 1303.0, 1304.0, 1302.0, 1303.0, 1305.0, 1304.0, 1303.0, 1304.0, 1304.0, 1303.0, 1303.0, 1302.0, 1301.0, 1301.0, 1301.0, 1300.0, 1303.0, 1302.0, 1302.0, 1302.0, 1301.0, 1299.0, 1299.0, 1302.0, 1302.0, 1303.0, 1302.0, 1303.0, 1302.0, 1303.0, 1302.0, 1303.0, 1302.0, 1302.0, 1300.0, 1301.0, 1299.0, 1300.0, 1300.0, 1300.0, 1299.0, 1299.0, 1299.0, 1299.0, 1302.0, 1302.0, 1303.0, 1302.0, 1303.0, 1302.0, 1302.0, 1301.0, 1302.0, 1301.0, 1301.0, 1301.0, 1300.0, 1299.0, 1299.0, 1300.0, 1299.0, 1300.0, 1300.0, 1301.0, 1301.0, 1301.0, 1301.0, 1300.0, 1301.0, 1301.0, 1300.0, 1299.0, 1300.0, 1300.0, 1300.0, 1301.0, 1301.0, 1301.0, 1301.0, 1301.0, 1301.0, 1301.0]
    },
    "slices": {}
  }
}