{
  "AcquisitionMatrixPE": 74,
  "AcquisitionNumber": 1,
  "AcquisitionTime": "11:53:57.117500",
  "BandwidthPerPixelPhaseEncode": 25.497,
  "BaseResolution": 74,
  "BodyPartExamined": "BRAIN",
  "ConsistencyInfo": "N4_VE11C_LATEST_20160120",
  "ConversionSoftware": "dcm2niix",
  "ConversionSoftwareVersion": "v1.0.20190410  GCC6.3.0",
  "DerivedVendorReportedEchoSpacing": 0.000530004,
  "DeviceSerialNumber": "45031",
  "DwellTime": 3e-06,
  "EchoTime": 0.028,
  "EchoTrainLength": 74,
  "EffectiveEchoSpacing": 0.000530004,
  "FlipAngle": 80,
  "ImageOrientationPatientDICOM": [0.999836, -0.0025321, -0.0179121, 0.00104702, 0.996596, -0.0824372],
  "ImageType": [
    "ORIGINAL",
    "PRIMARY",
    "M",
    "ND",
    "MOSAIC"
],
  "ImagingFrequency": 123.25,
  "InPlanePhaseEncodingDirectionDICOM": "COL",
  "InstitutionAddress": "Washington_and_Faculty_Rd._-_Building_25_25_Princeton_NJ_US_08540",
  "InstitutionName": "Princeton_University_-_Neuroscience_Institute",
  "InstitutionalDepartmentName": "Department",
  "MRAcquisitionType": "2D",
  "MagneticFieldStrength": 3,
  "Manufacturer": "Siemens",
  "ManufacturersModelName": "Skyra",
  "Modality": "MR",
  "MultibandAccelerationFactor": 2,
  "PartialFourier": 1,
  "PatientPosition": "HFS",
  "PercentPhaseFOV": 100,
  "PhaseEncodingDirection": "j-",
  "PhaseEncodingSteps": 74,
  "PhaseResolution": 1,
  "PixelBandwidth": 2250,
  "ProcedureStepDescription": "NormaL_Robert_Tangrams",
  "ProtocolName": "func_task-PreExposure_run-01",
  "PulseSequenceDetails": "%SiemensSeq%_ep2d_bold",
  "ReceiveCoilActiveElements": "HC1-7",
  "ReceiveCoilName": "HeadNeck_64",
  "ReconMatrixPE": 74,
  "RefLinesPE": 12,
  "RepetitionTime": 1.5,
  "SAR": 0.0750333,
  "ScanOptions": "FS",
  "ScanningSequence": "EP",
  "SequenceName": "_epfid2d1_74",
  "SequenceVariant": "SK",
  "SeriesDescription": "func_task-PreExposure_run-01",
  "SeriesNumber": 8,
  "ShimSetting": [3379, 8757, 9178, 646, 135, -414, 89, 262],
  "SliceThickness": 3,
  "SliceTiming": [0.7075, 0, 0.7725, 0.065, 0.8375, 0.13, 0.9, 0.1925, 0.965, 0.2575, 1.03, 0.3225, 1.095, 0.3875, 1.1575, 0.45, 1.2225, 0.515, 1.2875, 0.58, 1.3525, 0.645, 1.415, 0.7075, 0, 0.7725, 0.065, 0.8375, 0.13, 0.9, 0.1925, 0.965, 0.2575, 1.03, 0.3225, 1.095, 0.3875, 1.1575, 0.45, 1.2225, 0.515, 1.2875, 0.58, 1.3525, 0.645, 1.415],
  "SoftwareVersions": "syngo_MR_E11",
  "SpacingBetweenSlices": 3,
  "StationName": "AWP45031",
  "TaskName": "PreExposure",
  "TotalReadoutTime": 0.0386903,
  "TxRefAmp": 297.782,
  "dcmmeta_affine": [
    [-2.99950909614563, 0.003141064429655671, -0.05417967960238457, 110.73130798339844],
    [0.007596289739012718, 2.9897871017456055, -0.24721494317054749, -125.06092834472656],
    [-0.05373639613389969, 0.24731168150901794, 2.9893057346343994, -77.60079956054688],
    [0.0, 0.0, 0.0, 1.0]
],
  "dcmmeta_reorient_transform": [
    [0.0, -1.0, 0.0, 73.0],
    [1.0, 0.0, 0.0, 0.0],
    [0.0, 0.0, 1.0, 0.0],
    [0.0, 0.0, 0.0, 1.0]
],
  "dcmmeta_shape": [74, 74, 46, 179],
  "dcmmeta_slice_dim": 2,
  "dcmmeta_version": 0.6,
  "global": {
    "const": {
      "AcquisitionMatrix": [74, 0, 0, 74],
      "AngioFlag": "N",
      "BitsAllocated": 16,
      "BitsStored": 12,
      "BodyPartExamined": "BRAIN",
      "Columns": 518,
      "EchoNumbers": 1,
      "EchoTime": 28.0,
      "EchoTrainLength": 74,
      "FlipAngle": 80.0,
      "HighBit": 11,
      "ImageOrientationPatient": [0.99983635861708, -0.0025320966404, -0.0179121320321, 0.00104702151209, 0.99659570918475, -0.0824372256963],
      "ImagePositionPatient": [-777.54893751307, -755.23989925225, 7.28562179238],
      "ImageType": [
        "ORIGINAL",
        "PRIMARY",
        "M",
        "ND",
        "MOSAIC"
],
      "ImagedNucleus": "1H",
      "ImagingFrequency": 123.249973,
      "InPlanePhaseEncodingDirection": "COL",
      "MRAcquisitionType": "2D",
      "MagneticFieldStrength": 3.0,
      "Manufacturer": "SIEMENS",
      "ManufacturerModelName": "Skyra",
      "Modality": "MR",
      "NumberOfAverages": 1.0,
      "NumberOfPhaseEncodingSteps": 74,
      "PercentPhaseFieldOfView": 100.0,
      "PercentSampling": 100.0,
      "PerformedProcedureStepStartTime": "112019.153000",
      "PhotometricInterpretation": "MONOCHROME2",
      "PixelBandwidth": 2250.0,
      "PixelRepresentation": 0,
      "PixelSpacing": [3.0, 3.0],
      "ProtocolName": "func_task-PreExposure_run-01",
      "RepetitionTime": 1500.0,
      "Rows": 518,
      "SAR": 0.07503325286184,
      "SamplesPerPixel": 1,
      "ScanOptions": "FS",
      "ScanningSequence": "EP",
      "SequenceName": "*epfid2d1_74",
      "SequenceVariant": "SK",
      "SeriesDescription": "func_task-PreExposure_run-01",
      "SeriesNumber": 8,
      "SeriesTime": "115359.246000",
      "SliceLocation": -69.018329685843,
      "SliceThickness": 3.0,
      "SmallestImagePixelValue": 0,
      "SoftwareVersions": "syngo MR E11",
      "SpacingBetweenSlices": 2.9999999673284,
      "SpecificCharacterSet": "ISO_IR 100",
      "StudyID": "1",
      "StudyTime": "112019.073000",
      "TransmitCoilName": "Body",
      "VariableFlipAngleFlag": "N",
      "WindowCenterWidthExplanation": "Algo1",
      "dBdt": 0.0},
    "slices": {}
  },
  "time": {
    "samples": {
      "AcquisitionNumber": [1, 2, 3, 4, 5, 6, 7, 8, 9, 10, 11, 12, 13, 14, 15, 16, 17, 18, 19, 20, 21, 22, 23, 24, 25, 26, 27, 28, 29, 30, 31, 32, 33, 34, 35, 36, 37, 38, 39, 40, 41, 42, 43, 44, 45, 46, 47, 48, 49, 50, 51, 52, 53, 54, 55, 56, 57, 58, 59, 60, 61, 62, 63, 64, 65, 66, 67, 68, 69, 70, 71, 72, 73, 74, 75, 76, 77, 78, 79, 80, 81, 82, 83, 84, 85, 86, 87, 88, 89, 90, 91, 92, 93, 94, 95, 96, 97, 98, 99, 100, 101, 102, 103, 104, 105, 106, 107, 108, 109, 110, 111, 112, 113, 114, 115, 116, 117, 118, 119, 120, 121, 122, 123, 124, 125, 126, 127, 128, 129, 130, 131, 132, 133, 134, 135, 136, 137, 138, 139, 140, 141, 142, 143, 144, 145, 146, 147, 148, 149, 150, 151, 152, 153, 154, 155, 156, 157, 158, 159, 160, 161, 162, 163, 164, 165, 166, 167, 168, 169, 170, 171, 172, 173, 174, 175, 176, 177, 178, 179],
      "AcquisitionTime": ["115357.117500", "115358.617500", "115400.117500", "115401.617500", "115403.117500", "115404.617500", "115406.117500", "115407.617500", "115409.117500", "115410.617500", "115412.117500", "115413.617500", "115415.117500", "115416.617500", "115418.117500", "115419.617500", "115421.117500", "115422.617500", "115424.117500", "115425.617500", "115427.117500", "115428.617500", "115430.117500", "115431.617500", "115433.117500", "115434.617500", "115436.117500", "115437.617500", "115439.117500", "115440.617500", "115442.117500", "115443.617500", "115445.117500", "115446.617500", "115448.117500", "115449.617500", "115451.117500", "115452.617500", "115454.117500", "115455.617500", "115457.117500", "115458.617500", "115500.117500", "115501.617500", "115503.117500", "115504.617500", "115506.117500", "115507.617500", "115509.117500", "115510.617500", "115512.117500", "115513.617500", "115515.117500", "115516.617500", "115518.117500", "115519.617500", "115521.117500", "115522.617500", "115524.117500", "115525.617500", "115527.117500", "115528.617500", "115530.117500", "115531.617500", "115533.117500", "115534.617500", "115536.117500", "115537.617500", "115539.117500", "115540.617500", "115542.117500", "115543.617500", "115545.117500", "115546.617500", "115548.117500", "115549.617500", "115551.117500", "115552.617500", "115554.117500", "115555.617500", "115557.117500", "115558.617500", "115600.117500", "115601.617500", "115603.117500", "115604.617500", "115606.117500", "115607.617500", "115609.117500", "115610.617500", "115612.117500", "115613.617500", "115615.117500", "115616.617500", "115618.117500", "115619.617500", "115621.117500", "115622.617500", "115624.117500", "115625.617500", "115627.117500", "115628.617500", "115630.117500", "115631.617500", "115633.117500", "115634.617500", "115636.117500", "115637.617500", "115639.117500", "115640.617500", "115642.117500", "115643.617500", "115645.117500", "115646.617500", "115648.117500", "115649.617500", "115651.117500", "115652.617500", "115654.117500", "115655.617500", "115657.117500", "115658.617500", "115700.117500", "115701.617500", "115703.117500", "115704.617500", "115706.117500", "115707.617500", "115709.117500", "115710.617500", "115712.117500", "115713.617500", "115715.117500", "115716.617500", "115718.117500", "115719.617500", "115721.117500", "115722.617500", "115724.117500", "115725.617500", "115727.117500", "115728.617500", "115730.117500", "115731.617500", "115733.117500", "115734.617500", "115736.117500", "115737.617500", "115739.117500", "115740.617500", "115742.117500", "115743.617500", "115745.117500", "115746.617500", "115748.117500", "115749.617500", "115751.117500", "115752.617500", "115754.117500", "115755.617500", "115757.117500", "115758.617500", "115800.117500", "115801.617500", "115803.117500", "115804.617500", "115806.117500", "115807.617500", "115809.117500", "115810.617500", "115812.117500", "115813.617500", "115815.117500", "115816.617500", "115818.117500", "115819.617500", "115821.117500", "115822.617500", "115824.117500"],
      "ContentTime": ["115359.250000", "115400.245000", "115401.745000", "115403.245000", "115404.744000", "115406.244000", "115407.744000", "115409.244000", "115410.744000", "115412.244000", "115413.743000", "115415.244000", "115416.745000", "115418.245000", "115419.744000", "115421.252000", "115422.743000", "115424.244000", "115425.743000", "115427.244000", "115428.743000", "115430.244000", "115431.744000", "115433.244000", "115434.744000", "115436.244000", "115437.745000", "115439.244000", "115440.743000", "115442.244000", "115443.743000", "115445.243000", "115446.744000", "115448.244000", "115449.743000", "115451.245000", "115452.744000", "115454.244000", "115455.744000", "115457.244000", "115458.743000", "115500.243000", "115501.744000", "115503.244000", "115504.743000", "115506.244000", "115507.743000", "115509.245000", "115510.744000", "115512.245000", "115513.744000", "115515.243000", "115516.744000", "115518.244000", "115519.744000", "115521.244000", "115522.743000", "115524.244000", "115525.743000", "115527.245000", "115528.744000", "115530.245000", "115531.745000", "115533.244000", "115534.743000", "115536.244000", "115537.743000", "115539.244000", "115540.743000", "115542.244000", "115543.745000", "115545.245000", "115546.745000", "115548.245000", "115549.745000", "115551.243000", "115552.744000", "115554.243000", "115555.743000", "115557.243000", "115558.743000", "115600.244000", "115601.745000", "115603.245000", "115604.745000", "115606.244000", "115607.744000", "115609.243000", "115610.743000", "115612.244000", "115613.744000", "115615.244000", "115616.744000", "115618.244000", "115619.745000", "115621.245000", "115622.745000", "115624.245000", "115625.744000", "115627.244000", "115628.744000", "115630.244000", "115631.744000", "115633.244000", "115634.744000", "115636.245000", "115637.745000", "115639.245000", "115640.744000", "115642.245000", "115643.743000", "115645.244000", "115646.744000", "115648.244000", "115649.744000", "115651.244000", "115652.744000", "115654.245000", "115655.745000", "115657.245000", "115658.745000", "115700.244000", "115701.744000", "115703.244000", "115704.744000", "115706.244000", "115707.744000", "115709.244000", "115710.743000", "115712.245000", "115713.745000", "115715.245000", "115716.745000", "115718.244000", "115719.744000", "115721.244000", "115722.744000", "115724.244000", "115725.744000", "115727.244000", "115728.745000", "115730.245000", "115731.745000", "115733.245000", "115734.745000", "115736.244000", "115737.744000", "115739.244000", "115740.744000", "115742.244000", "115743.744000", "115745.244000", "115746.745000", "115748.245000", "115749.745000", "115751.244000", "115752.744000", "115754.244000", "115755.744000", "115757.244000", "115758.744000", "115800.244000", "115801.744000", "115803.244000", "115804.765000", "115806.245000", "115807.745000", "115809.245000", "115810.744000", "115812.244000", "115813.744000", "115815.244000", "115816.744000", "115818.244000", "115819.744000", "115821.245000", "115822.745000", "115824.245000", "115825.745000"],
      "InstanceCreationTime": ["115359.250000", "115400.245000", "115401.745000", "115403.245000", "115404.744000", "115406.244000", "115407.744000", "115409.244000", "115410.744000", "115412.244000", "115413.743000", "115415.244000", "115416.745000", "115418.245000", "115419.744000", "115421.252000", "115422.743000", "115424.244000", "115425.743000", "115427.244000", "115428.743000", "115430.244000", "115431.744000", "115433.244000", "115434.744000", "115436.244000", "115437.745000", "115439.244000", "115440.743000", "115442.244000", "115443.743000", "115445.243000", "115446.744000", "115448.244000", "115449.743000", "115451.245000", "115452.744000", "115454.244000", "115455.744000", "115457.244000", "115458.743000", "115500.243000", "115501.744000", "115503.244000", "115504.743000", "115506.244000", "115507.743000", "115509.245000", "115510.744000", "115512.245000", "115513.744000", "115515.243000", "115516.744000", "115518.244000", "115519.744000", "115521.244000", "115522.743000", "115524.244000", "115525.743000", "115527.245000", "115528.744000", "115530.245000", "115531.745000", "115533.244000", "115534.743000", "115536.244000", "115537.743000", "115539.244000", "115540.743000", "115542.244000", "115543.745000", "115545.245000", "115546.745000", "115548.245000", "115549.745000", "115551.243000", "115552.744000", "115554.243000", "115555.743000", "115557.243000", "115558.743000", "115600.244000", "115601.745000", "115603.245000", "115604.745000", "115606.244000", "115607.744000", "115609.243000", "115610.743000", "115612.244000", "115613.744000", "115615.244000", "115616.744000", "115618.244000", "115619.745000", "115621.245000", "115622.745000", "115624.245000", "115625.744000", "115627.244000", "115628.744000", "115630.244000", "115631.744000", "115633.244000", "115634.744000", "115636.245000", "115637.745000", "115639.245000", "115640.744000", "115642.245000", "115643.743000", "115645.244000", "115646.744000", "115648.244000", "115649.744000", "115651.244000", "115652.744000", "115654.245000", "115655.745000", "115657.245000", "115658.745000", "115700.244000", "115701.744000", "115703.244000", "115704.744000", "115706.244000", "115707.744000", "115709.244000", "115710.743000", "115712.245000", "115713.745000", "115715.245000", "115716.745000", "115718.244000", "115719.744000", "115721.244000", "115722.744000", "115724.244000", "115725.744000", "115727.244000", "115728.745000", "115730.245000", "115731.745000", "115733.245000", "115734.745000", "115736.244000", "115737.744000", "115739.244000", "115740.744000", "115742.244000", "115743.744000", "115745.244000", "115746.745000", "115748.245000", "115749.745000", "115751.244000", "115752.744000", "115754.244000", "115755.744000", "115757.244000", "115758.744000", "115800.244000", "115801.744000", "115803.244000", "115804.765000", "115806.245000", "115807.745000", "115809.245000", "115810.744000", "115812.244000", "115813.744000", "115815.244000", "115816.744000", "115818.244000", "115819.744000", "115821.245000", "115822.745000", "115824.245000", "115825.745000"],
      "InstanceNumber": [1, 2, 3, 4, 5, 6, 7, 8, 9, 10, 11, 12, 13, 14, 15, 16, 17, 18, 19, 20, 21, 22, 23, 24, 25, 26, 27, 28, 29, 30, 31, 32, 33, 34, 35, 36, 37, 38, 39, 40, 41, 42, 43, 44, 45, 46, 47, 48, 49, 50, 51, 52, 53, 54, 55, 56, 57, 58, 59, 60, 61, 62, 63, 64, 65, 66, 67, 68, 69, 70, 71, 72, 73, 74, 75, 76, 77, 78, 79, 80, 81, 82, 83, 84, 85, 86, 87, 88, 89, 90, 91, 92, 93, 94, 95, 96, 97, 98, 99, 100, 101, 102, 103, 104, 105, 106, 107, 108, 109, 110, 111, 112, 113, 114, 115, 116, 117, 118, 119, 120, 121, 122, 123, 124, 125, 126, 127, 128, 129, 130, 131, 132, 133, 134, 135, 136, 137, 138, 139, 140, 141, 142, 143, 144, 145, 146, 147, 148, 149, 150, 151, 152, 153, 154, 155, 156, 157, 158, 159, 160, 161, 162, 163, 164, 165, 166, 167, 168, 169, 170, 171, 172, 173, 174, 175, 176, 177, 178, 179],
      "LargestImagePixelValue": [1769, 1765, 1774, 1753, 1736, 1745, 1746, 1747, 1760, 1739, 1755, 1753, 1742, 1758, 1747, 1769, 1761, 1777, 1769, 1773, 1767, 1777, 1763, 1766, 1747, 1746, 1749, 1757, 1733, 1741, 1728, 1738, 1729, 1737, 1729, 1732, 1732, 1733, 1740, 1727, 1744, 1738, 1755, 1748, 1770, 1751, 1750, 1763, 1744, 1752, 1742, 1728, 1728, 1728, 1737, 1732, 1730, 1736, 1742, 1761, 1747, 1745, 1749, 1766, 1751, 1764, 1760, 1767, 1756, 1762, 1753, 1761, 1760, 1759, 1749, 1757, 1760, 1763, 1772, 1783, 1761, 1767, 1769, 1762, 1758, 1745, 1752, 1770, 1763, 1782, 1781, 1783, 1782, 1775, 1789, 1787, 1786, 1795, 1776, 1779, 1777, 1783, 1779, 1775, 1766, 1763, 1767, 1761, 1787, 1769, 1780, 1776, 1782, 1774, 1788, 1776, 1775, 1775, 1778, 1783, 1780, 1774, 1777, 1780, 1786, 1770, 1767, 1764, 1774, 1756, 1774, 1777, 1777, 1782, 1780, 1784, 1776, 1777, 1777, 1779, 1782, 1778, 1787, 1781, 1786, 1780, 1774, 1769, 1770, 1766, 1771, 1775, 1790, 1777, 1794, 1779, 1786, 1772, 1787, 1780, 1771, 1760, 1760, 1762, 1759, 1755, 1752, 1762, 1767, 1763, 1776, 1762, 1760, 1758, 1758, 1759, 1759, 1768, 1768],
      "WindowCenter": [619.0, 618.0, 619.0, 619.0, 619.0, 620.0, 620.0, 619.0, 619.0, 619.0, 619.0, 619.0, 619.0, 620.0, 621.0, 621.0, 621.0, 621.0, 621.0, 620.0, 620.0, 619.0, 618.0, 617.0, 617.0, 616.0, 616.0, 616.0, 616.0, 616.0, 615.0, 616.0, 615.0, 615.0, 615.0, 616.0, 616.0, 617.0, 616.0, 616.0, 616.0, 617.0, 617.0, 617.0, 618.0, 617.0, 617.0, 616.0, 616.0, 617.0, 616.0, 615.0, 615.0, 615.0, 616.0, 615.0, 616.0, 616.0, 616.0, 616.0, 616.0, 616.0, 616.0, 616.0, 616.0, 616.0, 616.0, 616.0, 616.0, 616.0, 616.0, 616.0, 616.0, 616.0, 615.0, 616.0, 616.0, 616.0, 616.0, 616.0, 616.0, 616.0, 616.0, 615.0, 615.0, 615.0, 615.0, 616.0, 615.0, 615.0, 615.0, 615.0, 615.0, 615.0, 616.0, 615.0, 616.0, 616.0, 616.0, 616.0, 616.0, 616.0, 615.0, 615.0, 615.0, 614.0, 615.0, 615.0, 615.0, 614.0, 615.0, 615.0, 615.0, 615.0, 615.0, 616.0, 615.0, 615.0, 615.0, 615.0, 615.0, 615.0, 615.0, 615.0, 615.0, 615.0, 614.0, 614.0, 615.0, 615.0, 615.0, 615.0, 616.0, 615.0, 616.0, 615.0, 615.0, 615.0, 615.0, 615.0, 616.0, 616.0, 615.0, 615.0, 615.0, 614.0, 614.0, 613.0, 614.0, 614.0, 615.0, 615.0, 615.0, 615.0, 615.0, 615.0, 616.0, 616.0, 616.0, 615.0, 615.0, 614.0, 614.0, 614.0, 614.0, 614.0, 615.0, 615.0, 615.0, 615.0, 615.0, 614.0, 614.0, 614.0, 614.0, 614.0, 614.0, 613.0, 613.0],
      "WindowWidth": [1319.0, 1317.0, 1319.0, 1319.0, 1320.0, 1321.0, 1321.0, 1320.0, 1319.0, 1318.0, 1319.0, 1320.0, 1320.0, 1322.0, 1323.0, 1324.0, 1325.0, 1325.0, 1323.0, 1322.0, 1320.0, 1319.0, 1316.0, 1315.0, 1314.0, 1312.0, 1311.0, 1311.0, 1311.0, 1311.0, 1311.0, 1311.0, 1310.0, 1310.0, 1311.0, 1313.0, 1313.0, 1313.0, 1313.0, 1312.0, 1313.0, 1314.0, 1315.0, 1314.0, 1315.0, 1315.0, 1313.0, 1313.0, 1312.0, 1313.0, 1312.0, 1311.0, 1311.0, 1311.0, 1311.0, 1310.0, 1311.0, 1311.0, 1311.0, 1312.0, 1312.0, 1311.0, 1311.0, 1312.0, 1312.0, 1312.0, 1313.0, 1312.0, 1312.0, 1312.0, 1311.0, 1311.0, 1311.0, 1311.0, 1311.0, 1311.0, 1311.0, 1311.0, 1312.0, 1312.0, 1311.0, 1312.0, 1311.0, 1310.0, 1309.0, 1309.0, 1310.0, 1311.0, 1310.0, 1310.0, 1310.0, 1310.0, 1310.0, 1309.0, 1311.0, 1311.0, 1311.0, 1312.0, 1311.0, 1311.0, 1311.0, 1311.0, 1310.0, 1310.0, 1309.0, 1308.0, 1309.0, 1309.0, 1310.0, 1308.0, 1308.0, 1309.0, 1309.0, 1310.0, 1310.0, 1310.0, 1309.0, 1309.0, 1308.0, 1309.0, 1308.0, 1308.0, 1308.0, 1309.0, 1310.0, 1309.0, 1308.0, 1308.0, 1309.0, 1309.0, 1309.0, 1310.0, 1311.0, 1310.0, 1311.0, 1310.0, 1310.0, 1310.0, 1310.0, 1310.0, 1311.0, 1311.0, 1310.0, 1310.0, 1308.0, 1307.0, 1306.0, 1305.0, 1306.0, 1307.0, 1308.0, 1309.0, 1309.0, 1310.0, 1309.0, 1310.0, 1312.0, 1311.0, 1311.0, 1310.0, 1309.0, 1307.0, 1306.0, 1307.0, 1308.0, 1308.0, 1309.0, 1309.0, 1309.0, 1309.0, 1309.0, 1308.0, 1308.0, 1307.0, 1306.0, 1306.0, 1306.0, 1305.0, 1305.0]
    },
    "slices": {}
  }
}