{
  "AcquisitionMatrixPE": 74,
  "AcquisitionNumber": 1,
  "AcquisitionTime": "12:46:2.400000",
  "BandwidthPerPixelPhaseEncode": 25.497,
  "BaseResolution": 74,
  "BodyPartExamined": "BRAIN",
  "ConsistencyInfo": "N4_VE11C_LATEST_20160120",
  "ConversionSoftware": "dcm2niix",
  "ConversionSoftwareVersion": "v1.0.20190410  GCC6.3.0",
  "DerivedVendorReportedEchoSpacing": 0.000530004,
  "DeviceSerialNumber": "45031",
  "DwellTime": 3e-06,
  "EchoTime": 0.028,
  "EchoTrainLength": 74,
  "EffectiveEchoSpacing": 0.000530004,
  "FlipAngle": 80,
  "ImageOrientationPatientDICOM": [0.999547, 0.0300489, -0.00159646, -0.0294912, 0.988778, 0.146452],
  "ImageType": [
    "ORIGINAL",
    "PRIMARY",
    "M",
    "ND",
    "MOSAIC"
],
  "ImagingFrequency": 123.25,
  "InPlanePhaseEncodingDirectionDICOM": "COL",
  "InstitutionAddress": "Washington_and_Faculty_Rd._-_Building_25_25_Princeton_NJ_US_08540",
  "InstitutionName": "Princeton_University_-_Neuroscience_Institute",
  "InstitutionalDepartmentName": "Department",
  "MRAcquisitionType": "2D",
  "MagneticFieldStrength": 3,
  "Manufacturer": "Siemens",
  "ManufacturersModelName": "Skyra",
  "Modality": "MR",
  "MultibandAccelerationFactor": 2,
  "PartialFourier": 1,
  "PatientPosition": "HFS",
  "PercentPhaseFOV": 100,
  "PhaseEncodingDirection": "j-",
  "PhaseEncodingSteps": 74,
  "PhaseResolution": 1,
  "PixelBandwidth": 2250,
  "ProcedureStepDescription": "NormaL_Robert_Tangrams",
  "ProtocolName": "func_task-PostExposure_run-01",
  "PulseSequenceDetails": "%SiemensSeq%_ep2d_bold",
  "ReceiveCoilActiveElements": "HC1-7",
  "ReceiveCoilName": "HeadNeck_64",
  "ReconMatrixPE": 74,
  "RefLinesPE": 12,
  "RepetitionTime": 1.5,
  "SAR": 0.0883357,
  "ScanOptions": "FS",
  "ScanningSequence": "EP",
  "SequenceName": "_epfid2d1_74",
  "SequenceVariant": "SK",
  "SeriesDescription": "func_task-PostExposure_run-01",
  "SeriesNumber": 15,
  "ShimSetting": [3357, 8679, 9336, 646, -116, -794, 548, 292],
  "SliceThickness": 3,
  "SliceTiming": [0.7075, 0, 0.7725, 0.065, 0.8375, 0.13, 0.9025, 0.195, 0.965, 0.2575, 1.03, 0.3225, 1.095, 0.3875, 1.16, 0.4525, 1.2225, 0.515, 1.2875, 0.58, 1.3525, 0.645, 1.4175, 0.7075, 0, 0.7725, 0.065, 0.8375, 0.13, 0.9025, 0.195, 0.965, 0.2575, 1.03, 0.3225, 1.095, 0.3875, 1.16, 0.4525, 1.2225, 0.515, 1.2875, 0.58, 1.3525, 0.645, 1.4175],
  "SoftwareVersions": "syngo_MR_E11",
  "SpacingBetweenSlices": 3,
  "StationName": "AWP45031",
  "TaskName": "PostExposure",
  "TotalReadoutTime": 0.0386903,
  "TxRefAmp": 310.502,
  "dcmmeta_affine": [
    [-2.9986414909362793, -0.08847362548112869, -0.01793774403631687, 114.05473327636719],
    [-0.09014658629894257, 2.966334342956543, 0.43901461362838745, -109.62315368652344],
    [-0.004789377562701702, -0.439354807138443, 2.9676496982574463, -35.032047271728516],
    [0.0, 0.0, 0.0, 1.0]
],
  "dcmmeta_reorient_transform": [
    [0.0, -1.0, 0.0, 73.0],
    [1.0, 0.0, 0.0, 0.0],
    [0.0, 0.0, 1.0, 0.0],
    [0.0, 0.0, 0.0, 1.0]
],
  "dcmmeta_shape": [74, 74, 46, 171],
  "dcmmeta_slice_dim": 2,
  "dcmmeta_version": 0.6,
  "global": {
    "const": {
      "AcquisitionMatrix": [74, 0, 0, 74],
      "AngioFlag": "N",
      "BitsAllocated": 16,
      "BitsStored": 12,
      "BodyPartExamined": "BRAIN",
      "Columns": 518,
      "EchoNumbers": 1,
      "EchoTime": 28.0,
      "EchoTrainLength": 74,
      "FlipAngle": 80.0,
      "HighBit": 11,
      "ImageOrientationPatient": [0.99954715607726, 0.0300488618077, -0.0015964591843, -0.0294912083755, 0.98877813281246, 0.14645160531882],
      "ImagePositionPatient": [-753.65341687252, -785.45803210288, -163.57847622599],
      "ImageType": [
        "ORIGINAL",
        "PRIMARY",
        "M",
        "ND",
        "MOSAIC"
],
      "ImagedNucleus": "1H",
      "ImagingFrequency": 123.25029,
      "InPlanePhaseEncodingDirection": "COL",
      "MRAcquisitionType": "2D",
      "MagneticFieldStrength": 3.0,
      "Manufacturer": "SIEMENS",
      "ManufacturerModelName": "Skyra",
      "Modality": "MR",
      "NumberOfAverages": 1.0,
      "NumberOfPhaseEncodingSteps": 74,
      "PercentPhaseFieldOfView": 100.0,
      "PercentSampling": 100.0,
      "PerformedProcedureStepStartTime": "105242.481000",
      "PhotometricInterpretation": "MONOCHROME2",
      "PixelBandwidth": 2250.0,
      "PixelRepresentation": 0,
      "PixelSpacing": [3.0, 3.0],
      "ProtocolName": "func_task-PostExposure_run-01",
      "RepetitionTime": 1500.0,
      "Rows": 518,
      "SAR": 0.08833569910173,
      "SamplesPerPixel": 1,
      "ScanOptions": "FS",
      "ScanningSequence": "EP",
      "SequenceName": "*epfid2d1_74",
      "SequenceVariant": "SK",
      "SeriesDescription": "func_task-PostExposure_run-01",
      "SeriesNumber": 15,
      "SeriesTime": "124603.933000",
      "SliceLocation": -51.378298427351,
      "SliceThickness": 3.0,
      "SmallestImagePixelValue": 0,
      "SoftwareVersions": "syngo MR E11",
      "SpacingBetweenSlices": 2.9999999459645,
      "SpecificCharacterSet": "ISO_IR 100",
      "StudyID": "1",
      "StudyTime": "105242.310000",
      "TransmitCoilName": "Body",
      "VariableFlipAngleFlag": "N",
      "WindowCenterWidthExplanation": "Algo1",
      "dBdt": 0.0},
    "slices": {}
  },
  "time": {
    "samples": {
      "AcquisitionNumber": [1, 2, 3, 4, 5, 6, 7, 8, 9, 10, 11, 12, 13, 14, 15, 16, 17, 18, 19, 20, 21, 22, 23, 24, 25, 26, 27, 28, 29, 30, 31, 32, 33, 34, 35, 36, 37, 38, 39, 40, 41, 42, 43, 44, 45, 46, 47, 48, 49, 50, 51, 52, 53, 54, 55, 56, 57, 58, 59, 60, 61, 62, 63, 64, 65, 66, 67, 68, 69, 70, 71, 72, 73, 74, 75, 76, 77, 78, 79, 80, 81, 82, 83, 84, 85, 86, 87, 88, 89, 90, 91, 92, 93, 94, 95, 96, 97, 98, 99, 100, 101, 102, 103, 104, 105, 106, 107, 108, 109, 110, 111, 112, 113, 114, 115, 116, 117, 118, 119, 120, 121, 122, 123, 124, 125, 126, 127, 128, 129, 130, 131, 132, 133, 134, 135, 136, 137, 138, 139, 140, 141, 142, 143, 144, 145, 146, 147, 148, 149, 150, 151, 152, 153, 154, 155, 156, 157, 158, 159, 160, 161, 162, 163, 164, 165, 166, 167, 168, 169, 170, 171],
      "AcquisitionTime": ["124602.400000", "124603.900000", "124605.400000", "124606.900000", "124608.400000", "124609.900000", "124611.400000", "124612.900000", "124614.400000", "124615.900000", "124617.400000", "124618.900000", "124620.400000", "124621.900000", "124623.400000", "124624.900000", "124626.400000", "124627.900000", "124629.400000", "124630.900000", "124632.400000", "124633.900000", "124635.400000", "124636.900000", "124638.400000", "124639.900000", "124641.400000", "124642.900000", "124644.400000", "124645.900000", "124647.400000", "124648.900000", "124650.400000", "124651.900000", "124653.400000", "124654.900000", "124656.400000", "124657.900000", "124659.400000", "124700.900000", "124702.400000", "124703.900000", "124705.400000", "124706.900000", "124708.400000", "124709.900000", "124711.400000", "124712.900000", "124714.400000", "124715.900000", "124717.400000", "124718.900000", "124720.400000", "124721.900000", "124723.400000", "124724.900000", "124726.400000", "124727.900000", "124729.400000", "124730.900000", "124732.400000", "124733.900000", "124735.400000", "124736.900000", "124738.400000", "124739.900000", "124741.400000", "124742.900000", "124744.400000", "124745.900000", "124747.400000", "124748.900000", "124750.400000", "124751.900000", "124753.400000", "124754.900000", "124756.400000", "124757.900000", "124759.400000", "124800.900000", "124802.400000", "124803.900000", "124805.400000", "124806.900000", "124808.400000", "124809.900000", "124811.400000", "124812.900000", "124814.400000", "124815.900000", "124817.400000", "124818.900000", "124820.400000", "124821.900000", "124823.400000", "124824.900000", "124826.400000", "124827.900000", "124829.400000", "124830.900000", "124832.400000", "124833.900000", "124835.400000", "124836.900000", "124838.400000", "124839.900000", "124841.400000", "124842.900000", "124844.400000", "124845.900000", "124847.400000", "124848.900000", "124850.400000", "124851.900000", "124853.400000", "124854.900000", "124856.400000", "124857.900000", "124859.400000", "124900.900000", "124902.400000", "124903.900000", "124905.400000", "124906.900000", "124908.400000", "124909.900000", "124911.400000", "124912.900000", "124914.400000", "124915.900000", "124917.400000", "124918.900000", "124920.400000", "124921.900000", "124923.400000", "124924.900000", "124926.400000", "124927.900000", "124929.400000", "124930.900000", "124932.400000", "124933.900000", "124935.400000", "124936.900000", "124938.400000", "124939.900000", "124941.400000", "124942.900000", "124944.400000", "124945.900000", "124947.400000", "124948.900000", "124950.400000", "124951.900000", "124953.400000", "124954.900000", "124956.400000", "124957.900000", "124959.400000", "125000.900000", "125002.400000", "125003.900000", "125005.400000", "125006.900000", "125008.400000", "125009.900000", "125011.400000", "125012.900000", "125014.400000", "125015.900000", "125017.400000"],
      "ContentTime": ["124603.937000", "124605.432000", "124606.932000", "124608.432000", "124609.931000", "124611.431000", "124612.931000", "124614.431000", "124615.931000", "124617.431000", "124618.932000", "124620.432000", "124621.932000", "124623.432000", "124624.932000", "124626.431000", "124627.931000", "124629.431000", "124630.931000", "124632.431000", "124633.931000", "124635.431000", "124636.932000", "124638.432000", "124639.932000", "124641.432000", "124642.932000", "124644.431000", "124645.931000", "124647.431000", "124648.931000", "124650.431000", "124651.931000", "124653.431000", "124654.932000", "124656.432000", "124657.932000", "124659.432000", "124700.932000", "124702.431000", "124703.931000", "124705.431000", "124706.931000", "124708.431000", "124709.931000", "124711.432000", "124712.932000", "124714.432000", "124715.932000", "124717.432000", "124718.931000", "124720.431000", "124721.931000", "124723.431000", "124724.931000", "124726.431000", "124727.931000", "124729.432000", "124730.932000", "124732.432000", "124733.932000", "124735.432000", "124736.931000", "124738.431000", "124739.931000", "124741.431000", "124742.931000", "124744.431000", "124745.931000", "124747.432000", "124748.932000", "124750.432000", "124751.932000", "124753.432000", "124754.931000", "124756.431000", "124757.931000", "124759.431000", "124800.931000", "124802.431000", "124803.932000", "124805.432000", "124806.932000", "124808.432000", "124809.932000", "124811.431000", "124812.931000", "124814.431000", "124815.931000", "124817.431000", "124818.931000", "124820.431000", "124821.932000", "124823.432000", "124824.932000", "124826.432000", "124827.932000", "124829.431000", "124830.931000", "124832.431000", "124833.931000", "124835.431000", "124836.931000", "124838.431000", "124839.932000", "124841.432000", "124842.932000", "124844.432000", "124845.932000", "124847.431000", "124848.931000", "124850.431000", "124851.931000", "124853.431000", "124854.931000", "124856.432000", "124857.932000", "124859.432000", "124900.932000", "124902.432000", "124903.931000", "124905.431000", "124906.931000", "124908.431000", "124909.931000", "124911.431000", "124912.931000", "124914.432000", "124915.932000", "124917.432000", "124918.952000", "124920.432000", "124921.931000", "124923.431000", "124924.931000", "124926.431000", "124927.931000", "124929.431000", "124930.931000", "124932.432000", "124933.932000", "124935.432000", "124936.932000", "124938.432000", "124939.931000", "124941.431000", "124942.931000", "124944.431000", "124945.931000", "124947.431000", "124948.932000", "124950.432000", "124951.932000", "124953.432000", "124954.932000", "124956.431000", "124957.931000", "124959.431000", "125000.931000", "125002.431000", "125003.931000", "125005.431000", "125006.952000", "125008.432000", "125009.932000", "125011.432000", "125012.932000", "125014.431000", "125015.931000", "125017.431000", "125018.931000"],
      "InstanceCreationTime": ["124603.937000", "124605.432000", "124606.932000", "124608.432000", "124609.931000", "124611.431000", "124612.931000", "124614.431000", "124615.931000", "124617.431000", "124618.932000", "124620.432000", "124621.932000", "124623.432000", "124624.932000", "124626.431000", "124627.931000", "124629.431000", "124630.931000", "124632.431000", "124633.931000", "124635.431000", "124636.932000", "124638.432000", "124639.932000", "124641.432000", "124642.932000", "124644.431000", "124645.931000", "124647.431000", "124648.931000", "124650.431000", "124651.931000", "124653.431000", "124654.932000", "124656.432000", "124657.932000", "124659.432000", "124700.932000", "124702.431000", "124703.931000", "124705.431000", "124706.931000", "124708.431000", "124709.931000", "124711.432000", "124712.932000", "124714.432000", "124715.932000", "124717.432000", "124718.931000", "124720.431000", "124721.931000", "124723.431000", "124724.931000", "124726.431000", "124727.931000", "124729.432000", "124730.932000", "124732.432000", "124733.932000", "124735.432000", "124736.931000", "124738.431000", "124739.931000", "124741.431000", "124742.931000", "124744.431000", "124745.931000", "124747.432000", "124748.932000", "124750.432000", "124751.932000", "124753.432000", "124754.931000", "124756.431000", "124757.931000", "124759.431000", "124800.931000", "124802.431000", "124803.932000", "124805.432000", "124806.932000", "124808.432000", "124809.932000", "124811.431000", "124812.931000", "124814.431000", "124815.931000", "124817.431000", "124818.931000", "124820.431000", "124821.932000", "124823.432000", "124824.932000", "124826.432000", "124827.932000", "124829.431000", "124830.931000", "124832.431000", "124833.931000", "124835.431000", "124836.931000", "124838.431000", "124839.932000", "124841.432000", "124842.932000", "124844.432000", "124845.932000", "124847.431000", "124848.931000", "124850.431000", "124851.931000", "124853.431000", "124854.931000", "124856.432000", "124857.932000", "124859.432000", "124900.932000", "124902.432000", "124903.931000", "124905.431000", "124906.931000", "124908.431000", "124909.931000", "124911.431000", "124912.931000", "124914.432000", "124915.932000", "124917.432000", "124918.952000", "124920.432000", "124921.931000", "124923.431000", "124924.931000", "124926.431000", "124927.931000", "124929.431000", "124930.931000", "124932.432000", "124933.932000", "124935.432000", "124936.932000", "124938.432000", "124939.931000", "124941.431000", "124942.931000", "124944.431000", "124945.931000", "124947.431000", "124948.932000", "124950.432000", "124951.932000", "124953.432000", "124954.932000", "124956.431000", "124957.931000", "124959.431000", "125000.931000", "125002.431000", "125003.931000", "125005.431000", "125006.952000", "125008.432000", "125009.932000", "125011.432000", "125012.932000", "125014.431000", "125015.931000", "125017.431000", "125018.931000"],
      "InstanceNumber": [1, 2, 3, 4, 5, 6, 7, 8, 9, 10, 11, 12, 13, 14, 15, 16, 17, 18, 19, 20, 21, 22, 23, 24, 25, 26, 27, 28, 29, 30, 31, 32, 33, 34, 35, 36, 37, 38, 39, 40, 41, 42, 43, 44, 45, 46, 47, 48, 49, 50, 51, 52, 53, 54, 55, 56, 57, 58, 59, 60, 61, 62, 63, 64, 65, 66, 67, 68, 69, 70, 71, 72, 73, 74, 75, 76, 77, 78, 79, 80, 81, 82, 83, 84, 85, 86, 87, 88, 89, 90, 91, 92, 93, 94, 95, 96, 97, 98, 99, 100, 101, 102, 103, 104, 105, 106, 107, 108, 109, 110, 111, 112, 113, 114, 115, 116, 117, 118, 119, 120, 121, 122, 123, 124, 125, 126, 127, 128, 129, 130, 131, 132, 133, 134, 135, 136, 137, 138, 139, 140, 141, 142, 143, 144, 145, 146, 147, 148, 149, 150, 151, 152, 153, 154, 155, 156, 157, 158, 159, 160, 161, 162, 163, 164, 165, 166, 167, 168, 169, 170, 171],
      "LargestImagePixelValue": [2516, 2514, 2501, 2503, 2536, 2506, 2500, 2501, 2535, 2501, 2504, 2518, 2535, 2500, 2574, 2588, 2509, 2579, 2567, 2541, 2588, 2549, 2511, 2530, 2542, 2476, 2504, 2513, 2465, 2491, 2503, 2485, 2503, 2514, 2571, 2512, 2557, 2562, 2540, 2574, 2564, 2592, 2564, 2450, 2488, 2472, 2474, 2498, 2509, 2505, 2487, 2553, 2526, 2492, 2485, 2492, 2469, 2520, 2510, 2475, 2536, 2527, 2497, 2518, 2561, 2506, 2471, 2547, 2510, 2474, 2524, 2550, 2512, 2509, 2536, 2515, 2500, 2530, 2515, 2514, 2476, 2476, 2490, 2481, 2474, 2510, 2526, 2549, 2515, 2440, 2488, 2491, 2463, 2532, 2538, 2592, 2595, 2497, 2563, 2568, 2505, 2495, 2529, 2457, 2483, 2518, 2480, 2467, 2522, 2471, 2476, 2488, 2467, 2493, 2554, 2538, 2498, 2530, 2527, 2520, 2483, 2505, 2537, 2489, 2489, 2552, 2504, 2496, 2535, 2538, 2530, 2487, 2491, 2536, 2547, 2491, 2550, 2549, 2499, 2541, 2536, 2516, 2507, 2476, 2544, 2520, 2518, 2505, 2509, 2536, 2565, 2497, 2493, 2520, 2551, 2578, 2497, 2470, 2493, 2476, 2502, 2486, 2544, 2546, 2549, 2527, 2522, 2541, 2561, 2514, 2534],
      "WindowCenter": [646.0, 645.0, 644.0, 645.0, 645.0, 645.0, 645.0, 645.0, 645.0, 645.0, 645.0, 645.0, 646.0, 646.0, 647.0, 647.0, 646.0, 648.0, 648.0, 648.0, 648.0, 647.0, 646.0, 646.0, 645.0, 644.0, 645.0, 645.0, 644.0, 643.0, 643.0, 643.0, 644.0, 645.0, 646.0, 646.0, 647.0, 646.0, 646.0, 647.0, 646.0, 647.0, 646.0, 644.0, 643.0, 642.0, 642.0, 644.0, 644.0, 644.0, 644.0, 645.0, 644.0, 644.0, 644.0, 644.0, 643.0, 644.0, 644.0, 644.0, 645.0, 644.0, 644.0, 644.0, 645.0, 644.0, 645.0, 646.0, 645.0, 645.0, 645.0, 646.0, 645.0, 645.0, 645.0, 644.0, 645.0, 645.0, 644.0, 644.0, 643.0, 643.0, 644.0, 644.0, 644.0, 646.0, 646.0, 646.0, 644.0, 642.0, 643.0, 644.0, 644.0, 645.0, 646.0, 648.0, 648.0, 647.0, 647.0, 646.0, 645.0, 645.0, 644.0, 643.0, 643.0, 644.0, 644.0, 644.0, 645.0, 643.0, 643.0, 643.0, 643.0, 644.0, 645.0, 645.0, 644.0, 645.0, 645.0, 645.0, 645.0, 644.0, 645.0, 644.0, 644.0, 645.0, 644.0, 645.0, 646.0, 646.0, 646.0, 645.0, 645.0, 646.0, 645.0, 645.0, 645.0, 645.0, 644.0, 645.0, 645.0, 644.0, 644.0, 644.0, 645.0, 644.0, 644.0, 644.0, 644.0, 644.0, 644.0, 643.0, 643.0, 643.0, 644.0, 644.0, 643.0, 642.0, 643.0, 643.0, 643.0, 643.0, 644.0, 644.0, 645.0, 646.0, 646.0, 646.0, 646.0, 645.0, 645.0],
      "WindowWidth": [1397.0, 1395.0, 1393.0, 1394.0, 1395.0, 1394.0, 1394.0, 1395.0, 1396.0, 1395.0, 1395.0, 1396.0, 1397.0, 1397.0, 1400.0, 1400.0, 1398.0, 1401.0, 1402.0, 1401.0, 1402.0, 1400.0, 1398.0, 1396.0, 1395.0, 1393.0, 1393.0, 1394.0, 1392.0, 1391.0, 1391.0, 1391.0, 1392.0, 1394.0, 1397.0, 1397.0, 1399.0, 1397.0, 1397.0, 1398.0, 1398.0, 1400.0, 1397.0, 1392.0, 1389.0, 1388.0, 1389.0, 1392.0, 1393.0, 1392.0, 1393.0, 1394.0, 1393.0, 1393.0, 1391.0, 1392.0, 1391.0, 1392.0, 1392.0, 1392.0, 1394.0, 1393.0, 1393.0, 1393.0, 1394.0, 1393.0, 1394.0, 1396.0, 1394.0, 1394.0, 1395.0, 1396.0, 1395.0, 1393.0, 1394.0, 1392.0, 1394.0, 1395.0, 1393.0, 1392.0, 1390.0, 1390.0, 1392.0, 1391.0, 1392.0, 1396.0, 1397.0, 1396.0, 1392.0, 1388.0, 1389.0, 1391.0, 1392.0, 1396.0, 1398.0, 1401.0, 1402.0, 1399.0, 1399.0, 1398.0, 1395.0, 1394.0, 1393.0, 1389.0, 1391.0, 1393.0, 1392.0, 1393.0, 1394.0, 1391.0, 1391.0, 1390.0, 1390.0, 1393.0, 1395.0, 1394.0, 1393.0, 1394.0, 1394.0, 1394.0, 1394.0, 1393.0, 1393.0, 1393.0, 1393.0, 1395.0, 1393.0, 1395.0, 1396.0, 1396.0, 1396.0, 1393.0, 1394.0, 1396.0, 1395.0, 1394.0, 1395.0, 1394.0, 1393.0, 1394.0, 1394.0, 1393.0, 1393.0, 1392.0, 1393.0, 1392.0, 1392.0, 1391.0, 1391.0, 1391.0, 1390.0, 1389.0, 1389.0, 1389.0, 1392.0, 1392.0, 1388.0, 1387.0, 1389.0, 1389.0, 1389.0, 1389.0, 1391.0, 1392.0, 1395.0, 1396.0, 1397.0, 1397.0, 1395.0, 1395.0, 1395.0]
    },
    "slices": {}
  }
}