{
  "AcquisitionMatrixPE": 74,
  "AcquisitionNumber": 1,
  "AcquisitionTime": "12:14:34.202500",
  "BandwidthPerPixelPhaseEncode": 25.497,
  "BaseResolution": 74,
  "BodyPartExamined": "BRAIN",
  "CoilCombinationMethod": "Sum of Squares",
  "ConsistencyInfo": "N4_VE11C_LATEST_20160120",
  "ConversionSoftware": "dcm2niix",
  "ConversionSoftwareVersion": "v1.0.20220720",
  "DerivedVendorReportedEchoSpacing": 0.000530004,
  "DeviceSerialNumber": "66018",
  "DwellTime": 3e-06,
  "EchoTime": 0.028,
  "EchoTrainLength": 74,
  "EffectiveEchoSpacing": 0.000530004,
  "FlipAngle": 80,
  "HeudiconvVersion": "0.12.2",
  "ImageOrientationPatientDICOM": [0.996383, 0.0163793, -0.0833855, -0.0194794, 0.999144, -0.0365007],
  "ImageOrientationText": "Tra>Sag(-4.7)>Cor(-2.2)",
  "ImageType": [
    "ORIGINAL",
    "PRIMARY",
    "M",
    "ND",
    "MOSAIC"
],
  "ImagingFrequency": 123.167,
  "InPlanePhaseEncodingDirectionDICOM": "COL",
  "InstitutionAddress": "Stadium 1952,Princeton,NJ,US,08544",
  "InstitutionName": "Princeton University",
  "InstitutionalDepartmentName": "NeuroScience",
  "MRAcquisitionType": "2D",
  "MagneticFieldStrength": 3,
  "Manufacturer": "Siemens",
  "ManufacturersModelName": "Prisma",
  "Modality": "MR",
  "MultibandAccelerationFactor": 2,
  "NonlinearGradientCorrection": false,
  "PartialFourier": 1,
  "PatientPosition": "HFS",
  "PercentPhaseFOV": 100,
  "PercentSampling": 100,
  "PhaseEncodingDirection": "j-",
  "PhaseEncodingSteps": 74,
  "PhaseResolution": 1,
  "PixelBandwidth": 2250,
  "ProcedureStepDescription": "NormaL_Robert^Tangrams",
  "ProtocolName": "func_task-PostExposure_run-01",
  "PulseSequenceDetails": "%SiemensSeq%\\ep2d_bold",
  "ReceiveCoilActiveElements": "HC1-7",
  "ReceiveCoilName": "HeadNeck_64",
  "ReconMatrixPE": 74,
  "RefLinesPE": 12,
  "RepetitionTime": 1.5,
  "SAR": 0.0550415,
  "ScanOptions": "FS",
  "ScanningSequence": "EP",
  "SequenceName": "*epfid2d1_74",
  "SequenceVariant": "SK",
  "SeriesDescription": "func_task-PostExposure_run-01",
  "SeriesNumber": 15,
  "ShimSetting": [723, 483, 2048, 615, -28, -166, 41, 138],
  "SliceThickness": 3,
  "SliceTiming": [0.7075, 0, 0.77, 0.0625, 0.835, 0.1275, 0.9, 0.1925, 0.965, 0.2575, 1.0275, 0.32, 1.0925, 0.385, 1.1575, 0.45, 1.2225, 0.515, 1.285, 0.5775, 1.35, 0.6425, 1.415, 0.7075, 0, 0.77, 0.0625, 0.835, 0.1275, 0.9, 0.1925, 0.965, 0.2575, 1.0275, 0.32, 1.0925, 0.385, 1.1575, 0.45, 1.2225, 0.515, 1.285, 0.5775, 1.35, 0.6425, 1.415],
  "SoftwareVersions": "syngo MR E11",
  "SpacingBetweenSlices": 3,
  "StationName": "AWP66018",
  "TaskName": "PostExposure",
  "TotalReadoutTime": 0.0386903,
  "TxRefAmp": 211.588,
  "dcmmeta_affine": [
    [-2.9891481399536133, -0.058438245207071304, -0.24814867973327637, 113.79965209960938],
    [-0.049138035625219345, 2.9974312782287598, -0.11397901922464371, -98.8008804321289],
    [-0.2501564621925354, 0.10950221121311188, 2.987545967102051, -52.49675369262695],
    [0.0, 0.0, 0.0, 1.0]
],
  "dcmmeta_reorient_transform": [
    [0.0, -1.0, 0.0, 73.0],
    [1.0, 0.0, 0.0, 0.0],
    [0.0, 0.0, 1.0, 0.0],
    [0.0, 0.0, 0.0, 1.0]
],
  "dcmmeta_shape": [74, 74, 46, 171],
  "dcmmeta_slice_dim": 2,
  "dcmmeta_version": 0.6,
  "global": {
    "const": {
      "AcquisitionMatrix": [74, 0, 0, 74],
      "AngioFlag": "N",
      "BitsAllocated": 16,
      "BitsStored": 12,
      "BodyPartExamined": "BRAIN",
      "Columns": 518,
      "EchoNumbers": 1,
      "EchoTime": 28.0,
      "EchoTrainLength": 74,
      "FlipAngle": 80.0,
      "HighBit": 11,
      "ImageOrientationPatient": [0.99638274661533, 0.01637934553782, -0.0833854860695, -0.0194794145839, 0.99914375770143, -0.036500737715],
      "ImagePositionPatient": [-760.15127975931, -796.349986335, 35.341132928826],
      "ImageType": [
        "ORIGINAL",
        "PRIMARY",
        "M",
        "ND",
        "MOSAIC"
],
      "ImagedNucleus": "1H",
      "ImagingFrequency": 123.167359,
      "InPlanePhaseEncodingDirection": "COL",
      "MRAcquisitionType": "2D",
      "MagneticFieldStrength": 3.0,
      "Manufacturer": "SIEMENS",
      "ManufacturerModelName": "Prisma",
      "Modality": "MR",
      "NumberOfAverages": 1.0,
      "NumberOfPhaseEncodingSteps": 74,
      "PercentPhaseFieldOfView": 100.0,
      "PercentSampling": 100.0,
      "PerformedProcedureStepStartTime": "103513.506000",
      "PhotometricInterpretation": "MONOCHROME2",
      "PixelBandwidth": 2250.0,
      "PixelRepresentation": 0,
      "PixelSpacing": [3.0, 3.0],
      "ProtocolName": "func_task-PostExposure_run-01",
      "RepetitionTime": 1500.0,
      "Rows": 518,
      "SAR": 0.05504150483759,
      "SamplesPerPixel": 1,
      "ScanOptions": "FS",
      "ScanningSequence": "EP",
      "SequenceName": "*epfid2d1_74",
      "SequenceVariant": "SK",
      "SeriesDescription": "func_task-PostExposure_run-01",
      "SeriesNumber": 15,
      "SeriesTime": "121436.100000",
      "SliceLocation": -57.938157542033,
      "SliceThickness": 3.0,
      "SmallestImagePixelValue": 0,
      "SoftwareVersions": "syngo MR E11",
      "SpacingBetweenSlices": 2.9999999623288,
      "SpecificCharacterSet": "ISO_IR 100",
      "StudyID": "1",
      "StudyTime": "103513.401000",
      "TransmitCoilName": "Body",
      "VariableFlipAngleFlag": "N",
      "WindowCenterWidthExplanation": "Algo1",
      "dBdt": 0.0},
    "slices": {}
  },
  "time": {
    "samples": {
      "AcquisitionNumber": [1, 2, 3, 4, 5, 6, 7, 8, 9, 10, 11, 12, 13, 14, 15, 16, 17, 18, 19, 20, 21, 22, 23, 24, 25, 26, 27, 28, 29, 30, 31, 32, 33, 34, 35, 36, 37, 38, 39, 40, 41, 42, 43, 44, 45, 46, 47, 48, 49, 50, 51, 52, 53, 54, 55, 56, 57, 58, 59, 60, 61, 62, 63, 64, 65, 66, 67, 68, 69, 70, 71, 72, 73, 74, 75, 76, 77, 78, 79, 80, 81, 82, 83, 84, 85, 86, 87, 88, 89, 90, 91, 92, 93, 94, 95, 96, 97, 98, 99, 100, 101, 102, 103, 104, 105, 106, 107, 108, 109, 110, 111, 112, 113, 114, 115, 116, 117, 118, 119, 120, 121, 122, 123, 124, 125, 126, 127, 128, 129, 130, 131, 132, 133, 134, 135, 136, 137, 138, 139, 140, 141, 142, 143, 144, 145, 146, 147, 148, 149, 150, 151, 152, 153, 154, 155, 156, 157, 158, 159, 160, 161, 162, 163, 164, 165, 166, 167, 168, 169, 170, 171],
      "AcquisitionTime": ["121434.202500", "121435.702500", "121437.202500", "121438.702500", "121440.202500", "121441.702500", "121443.202500", "121444.702500", "121446.202500", "121447.702500", "121449.202500", "121450.702500", "121452.202500", "121453.702500", "121455.202500", "121456.702500", "121458.202500", "121459.702500", "121501.202500", "121502.702500", "121504.202500", "121505.702500", "121507.202500", "121508.702500", "121510.202500", "121511.702500", "121513.202500", "121514.702500", "121516.202500", "121517.702500", "121519.202500", "121520.702500", "121522.202500", "121523.702500", "121525.202500", "121526.702500", "121528.202500", "121529.702500", "121531.202500", "121532.702500", "121534.202500", "121535.702500", "121537.202500", "121538.702500", "121540.202500", "121541.702500", "121543.202500", "121544.702500", "121546.202500", "121547.702500", "121549.202500", "121550.702500", "121552.202500", "121553.702500", "121555.202500", "121556.702500", "121558.202500", "121559.702500", "121601.202500", "121602.702500", "121604.202500", "121605.702500", "121607.202500", "121608.702500", "121610.202500", "121611.702500", "121613.202500", "121614.702500", "121616.202500", "121617.702500", "121619.202500", "121620.702500", "121622.202500", "121623.702500", "121625.202500", "121626.702500", "121628.202500", "121629.702500", "121631.202500", "121632.702500", "121634.202500", "121635.702500", "121637.202500", "121638.702500", "121640.202500", "121641.702500", "121643.202500", "121644.702500", "121646.202500", "121647.702500", "121649.202500", "121650.702500", "121652.202500", "121653.702500", "121655.202500", "121656.702500", "121658.202500", "121659.702500", "121701.202500", "121702.702500", "121704.202500", "121705.702500", "121707.202500", "121708.702500", "121710.202500", "121711.702500", "121713.202500", "121714.702500", "121716.202500", "121717.702500", "121719.202500", "121720.702500", "121722.202500", "121723.702500", "121725.202500", "121726.702500", "121728.202500", "121729.702500", "121731.202500", "121732.702500", "121734.202500", "121735.702500", "121737.202500", "121738.702500", "121740.202500", "121741.702500", "121743.202500", "121744.702500", "121746.202500", "121747.702500", "121749.202500", "121750.702500", "121752.202500", "121753.702500", "121755.202500", "121756.702500", "121758.202500", "121759.702500", "121801.202500", "121802.702500", "121804.202500", "121805.702500", "121807.202500", "121808.702500", "121810.202500", "121811.702500", "121813.202500", "121814.702500", "121816.202500", "121817.702500", "121819.202500", "121820.702500", "121822.202500", "121823.702500", "121825.202500", "121826.702500", "121828.202500", "121829.702500", "121831.202500", "121832.702500", "121834.202500", "121835.702500", "121837.202500", "121838.702500", "121840.202500", "121841.702500", "121843.202500", "121844.702500", "121846.202500", "121847.702500", "121849.202500"],
      "ContentTime": ["121436.105000", "121437.599000", "121439.099000", "121440.599000", "121442.098000", "121443.599000", "121445.099000", "121446.599000", "121448.099000", "121449.600000", "121451.099000", "121452.599000", "121454.099000", "121455.599000", "121457.099000", "121458.599000", "121500.098000", "121501.599000", "121503.099000", "121504.599000", "121506.099000", "121507.600000", "121509.098000", "121510.599000", "121512.099000", "121513.598000", "121515.099000", "121516.599000", "121518.098000", "121519.599000", "121521.112000", "121522.599000", "121524.100000", "121525.599000", "121527.099000", "121528.599000", "121530.099000", "121531.599000", "121533.099000", "121534.599000", "121536.098000", "121537.599000", "121539.099000", "121540.599000", "121542.099000", "121543.599000", "121545.099000", "121546.599000", "121548.099000", "121549.599000", "121551.099000", "121552.599000", "121554.099000", "121555.599000", "121557.099000", "121558.599000", "121600.100000", "121601.599000", "121603.099000", "121604.599000", "121606.098000", "121607.599000", "121609.099000", "121610.599000", "121612.099000", "121613.599000", "121615.099000", "121616.600000", "121618.099000", "121619.599000", "121621.099000", "121622.599000", "121624.099000", "121625.599000", "121627.099000", "121628.599000", "121630.099000", "121631.599000", "121633.099000", "121634.600000", "121636.099000", "121637.599000", "121639.099000", "121640.599000", "121642.099000", "121643.599000", "121645.099000", "121646.599000", "121648.099000", "121649.599000", "121651.099000", "121652.600000", "121654.099000", "121655.599000", "121657.099000", "121658.599000", "121700.099000", "121701.599000", "121703.099000", "121704.599000", "121706.099000", "121707.599000", "121709.100000", "121710.599000", "121712.098000", "121713.599000", "121715.099000", "121716.599000", "121718.099000", "121719.599000", "121721.098000", "121722.599000", "121724.099000", "121725.599000", "121727.100000", "121728.599000", "121730.099000", "121731.599000", "121733.099000", "121734.599000", "121736.099000", "121737.599000", "121739.099000", "121740.599000", "121742.099000", "121743.599000", "121745.100000", "121746.599000", "121748.099000", "121749.599000", "121751.099000", "121752.599000", "121754.099000", "121755.599000", "121757.099000", "121758.599000", "121800.099000", "121801.600000", "121803.099000", "121804.599000", "121806.099000", "121807.599000", "121809.099000", "121810.599000", "121812.098000", "121813.599000", "121815.098000", "121816.599000", "121818.099000", "121819.600000", "121821.099000", "121822.599000", "121824.099000", "121825.599000", "121827.099000", "121828.599000", "121830.099000", "121831.599000", "121833.099000", "121834.599000", "121836.099000", "121837.600000", "121839.099000", "121840.599000", "121842.098000", "121843.599000", "121845.099000", "121846.599000", "121848.099000", "121849.599000", "121850.874000"],
      "InstanceCreationTime": ["121436.105000", "121437.599000", "121439.099000", "121440.599000", "121442.098000", "121443.599000", "121445.099000", "121446.599000", "121448.099000", "121449.600000", "121451.099000", "121452.599000", "121454.099000", "121455.599000", "121457.099000", "121458.599000", "121500.098000", "121501.599000", "121503.099000", "121504.599000", "121506.099000", "121507.600000", "121509.098000", "121510.599000", "121512.099000", "121513.598000", "121515.099000", "121516.599000", "121518.098000", "121519.599000", "121521.112000", "121522.599000", "121524.100000", "121525.599000", "121527.099000", "121528.599000", "121530.099000", "121531.599000", "121533.099000", "121534.599000", "121536.098000", "121537.599000", "121539.099000", "121540.599000", "121542.099000", "121543.599000", "121545.099000", "121546.599000", "121548.099000", "121549.599000", "121551.099000", "121552.599000", "121554.099000", "121555.599000", "121557.099000", "121558.599000", "121600.100000", "121601.599000", "121603.099000", "121604.599000", "121606.098000", "121607.599000", "121609.099000", "121610.599000", "121612.099000", "121613.599000", "121615.099000", "121616.600000", "121618.099000", "121619.599000", "121621.099000", "121622.599000", "121624.099000", "121625.599000", "121627.099000", "121628.599000", "121630.099000", "121631.599000", "121633.099000", "121634.600000", "121636.099000", "121637.599000", "121639.099000", "121640.599000", "121642.099000", "121643.599000", "121645.099000", "121646.599000", "121648.099000", "121649.599000", "121651.099000", "121652.600000", "121654.099000", "121655.599000", "121657.099000", "121658.599000", "121700.099000", "121701.599000", "121703.099000", "121704.599000", "121706.099000", "121707.599000", "121709.100000", "121710.599000", "121712.098000", "121713.599000", "121715.099000", "121716.599000", "121718.099000", "121719.599000", "121721.098000", "121722.599000", "121724.099000", "121725.599000", "121727.100000", "121728.599000", "121730.099000", "121731.599000", "121733.099000", "121734.599000", "121736.099000", "121737.599000", "121739.099000", "121740.599000", "121742.099000", "121743.599000", "121745.100000", "121746.599000", "121748.099000", "121749.599000", "121751.099000", "121752.599000", "121754.099000", "121755.599000", "121757.099000", "121758.599000", "121800.099000", "121801.600000", "121803.099000", "121804.599000", "121806.099000", "121807.599000", "121809.099000", "121810.599000", "121812.098000", "121813.599000", "121815.098000", "121816.599000", "121818.099000", "121819.600000", "121821.099000", "121822.599000", "121824.099000", "121825.599000", "121827.099000", "121828.599000", "121830.099000", "121831.599000", "121833.099000", "121834.599000", "121836.099000", "121837.600000", "121839.099000", "121840.599000", "121842.098000", "121843.599000", "121845.099000", "121846.599000", "121848.099000", "121849.599000", "121850.874000"],
      "InstanceNumber": [1, 2, 3, 4, 5, 6, 7, 8, 9, 10, 11, 12, 13, 14, 15, 16, 17, 18, 19, 20, 21, 22, 23, 24, 25, 26, 27, 28, 29, 30, 31, 32, 33, 34, 35, 36, 37, 38, 39, 40, 41, 42, 43, 44, 45, 46, 47, 48, 49, 50, 51, 52, 53, 54, 55, 56, 57, 58, 59, 60, 61, 62, 63, 64, 65, 66, 67, 68, 69, 70, 71, 72, 73, 74, 75, 76, 77, 78, 79, 80, 81, 82, 83, 84, 85, 86, 87, 88, 89, 90, 91, 92, 93, 94, 95, 96, 97, 98, 99, 100, 101, 102, 103, 104, 105, 106, 107, 108, 109, 110, 111, 112, 113, 114, 115, 116, 117, 118, 119, 120, 121, 122, 123, 124, 125, 126, 127, 128, 129, 130, 131, 132, 133, 134, 135, 136, 137, 138, 139, 140, 141, 142, 143, 144, 145, 146, 147, 148, 149, 150, 151, 152, 153, 154, 155, 156, 157, 158, 159, 160, 161, 162, 163, 164, 165, 166, 167, 168, 169, 170, 171],
      "LargestImagePixelValue": [2491, 2483, 2491, 2474, 2484, 2486, 2508, 2503, 2513, 2507, 2534, 2532, 2535, 2525, 2525, 2533, 2539, 2525, 2531, 2533, 2516, 2516, 2535, 2540, 2542, 2507, 2496, 2477, 2504, 2501, 2500, 2502, 2535, 2511, 2507, 2527, 2515, 2558, 2544, 2531, 2559, 2500, 2502, 2497, 2477, 2472, 2466, 2477, 2446, 2490, 2479, 2488, 2501, 2492, 2507, 2508, 2490, 2482, 2498, 2490, 2491, 2506, 2516, 2498, 2528, 2506, 2506, 2542, 2522, 2551, 2533, 2542, 2472, 2465, 2483, 2489, 2528, 2519, 2542, 2530, 2561, 2536, 2543, 2514, 2495, 2526, 2519, 2515, 2528, 2514, 2538, 2495, 2508, 2482, 2506, 2510, 2484, 2473, 2464, 2490, 2473, 2480, 2465, 2497, 2457, 2471, 2463, 2454, 2459, 2478, 2471, 2485, 2418, 2430, 2428, 2453, 2416, 2443, 2443, 2429, 2443, 2452, 2435, 2445, 2452, 2436, 2465, 2448, 2469, 2438, 2421, 2413, 2433, 2419, 2418, 2433, 2451, 2429, 2442, 2432, 2439, 2445, 2445, 2439, 2445, 2441, 2445, 2444, 2434, 2461, 2443, 2430, 2426, 2422, 2431, 2425, 2432, 2407, 2420, 2440, 2445, 2437, 2439, 2446, 2420, 2432, 2457, 2443, 2429, 2427, 2442],
      "WindowCenter": [679.0, 678.0, 678.0, 678.0, 679.0, 680.0, 681.0, 681.0, 681.0, 681.0, 682.0, 682.0, 682.0, 682.0, 682.0, 682.0, 682.0, 682.0, 683.0, 683.0, 682.0, 682.0, 683.0, 683.0, 683.0, 682.0, 682.0, 682.0, 682.0, 682.0, 682.0, 681.0, 681.0, 681.0, 681.0, 681.0, 681.0, 682.0, 682.0, 682.0, 682.0, 682.0, 681.0, 681.0, 680.0, 680.0, 679.0, 679.0, 678.0, 679.0, 679.0, 680.0, 680.0, 681.0, 681.0, 681.0, 681.0, 680.0, 680.0, 679.0, 679.0, 679.0, 680.0, 679.0, 680.0, 679.0, 680.0, 681.0, 680.0, 681.0, 681.0, 681.0, 680.0, 680.0, 680.0, 680.0, 681.0, 681.0, 681.0, 681.0, 681.0, 680.0, 679.0, 679.0, 679.0, 678.0, 678.0, 677.0, 678.0, 678.0, 679.0, 679.0, 680.0, 680.0, 681.0, 681.0, 681.0, 680.0, 680.0, 680.0, 679.0, 680.0, 679.0, 679.0, 678.0, 678.0, 678.0, 678.0, 677.0, 677.0, 677.0, 678.0, 677.0, 678.0, 678.0, 678.0, 677.0, 677.0, 677.0, 676.0, 677.0, 677.0, 678.0, 678.0, 678.0, 677.0, 677.0, 676.0, 677.0, 677.0, 678.0, 678.0, 679.0, 679.0, 679.0, 679.0, 679.0, 678.0, 678.0, 678.0, 677.0, 677.0, 677.0, 678.0, 678.0, 678.0, 678.0, 677.0, 678.0, 678.0, 678.0, 679.0, 679.0, 679.0, 679.0, 679.0, 679.0, 678.0, 679.0, 680.0, 679.0, 679.0, 679.0, 678.0, 678.0, 679.0, 680.0, 680.0, 681.0, 681.0, 681.0],
      "WindowWidth": [1478.0, 1476.0, 1476.0, 1478.0, 1481.0, 1482.0, 1484.0, 1485.0, 1486.0, 1485.0, 1486.0, 1487.0, 1488.0, 1486.0, 1487.0, 1488.0, 1488.0, 1487.0, 1489.0, 1490.0, 1488.0, 1489.0, 1490.0, 1489.0, 1489.0, 1487.0, 1488.0, 1487.0, 1488.0, 1487.0, 1487.0, 1485.0, 1485.0, 1484.0, 1485.0, 1485.0, 1486.0, 1488.0, 1488.0, 1489.0, 1488.0, 1487.0, 1485.0, 1484.0, 1483.0, 1482.0, 1480.0, 1479.0, 1477.0, 1479.0, 1479.0, 1482.0, 1483.0, 1484.0, 1486.0, 1485.0, 1485.0, 1483.0, 1482.0, 1480.0, 1480.0, 1480.0, 1481.0, 1481.0, 1482.0, 1481.0, 1482.0, 1484.0, 1483.0, 1486.0, 1485.0, 1485.0, 1482.0, 1482.0, 1483.0, 1483.0, 1484.0, 1484.0, 1484.0, 1484.0, 1484.0, 1481.0, 1480.0, 1478.0, 1478.0, 1477.0, 1475.0, 1474.0, 1475.0, 1476.0, 1479.0, 1480.0, 1482.0, 1482.0, 1484.0, 1485.0, 1484.0, 1482.0, 1482.0, 1483.0, 1481.0, 1481.0, 1480.0, 1479.0, 1478.0, 1477.0, 1477.0, 1476.0, 1474.0, 1474.0, 1474.0, 1476.0, 1475.0, 1477.0, 1476.0, 1476.0, 1474.0, 1474.0, 1473.0, 1472.0, 1474.0, 1475.0, 1477.0, 1478.0, 1477.0, 1474.0, 1473.0, 1472.0, 1474.0, 1475.0, 1476.0, 1478.0, 1479.0, 1478.0, 1479.0, 1479.0, 1480.0, 1478.0, 1477.0, 1476.0, 1475.0, 1474.0, 1475.0, 1476.0, 1477.0, 1477.0, 1476.0, 1475.0, 1476.0, 1477.0, 1478.0, 1479.0, 1479.0, 1479.0, 1480.0, 1479.0, 1479.0, 1477.0, 1479.0, 1482.0, 1481.0, 1481.0, 1479.0, 1477.0, 1476.0, 1479.0, 1481.0, 1482.0, 1484.0, 1484.0, 1483.0]
    },
    "slices": {}
  }
}