{
  "AcquisitionMatrixPE": 74,
  "AcquisitionNumber": 1,
  "AcquisitionTime": "13:15:47.447500",
  "BandwidthPerPixelPhaseEncode": 25.497,
  "BaseResolution": 74,
  "BodyPartExamined": "BRAIN",
  "CoilCombinationMethod": "Sum of Squares",
  "ConsistencyInfo": "N4_VE11C_LATEST_20160120",
  "ConversionSoftware": "dcm2niix",
  "ConversionSoftwareVersion": "v1.0.20220720",
  "DerivedVendorReportedEchoSpacing": 0.000530004,
  "DeviceSerialNumber": "45031",
  "DwellTime": 3e-06,
  "EchoTime": 0.028,
  "EchoTrainLength": 74,
  "EffectiveEchoSpacing": 0.000530004,
  "FlipAngle": 80,
  "HeudiconvVersion": "0.12.2",
  "ImageOrientationPatientDICOM": [0.0353952, 0.988206, -0.148984, 0.0161278, -0.149623, -0.988612],
  "ImageOrientationText": "Sag>Cor(1.9)>Tra(-1.2)",
  "ImageType": [
    "ORIGINAL",
    "PRIMARY",
    "M",
    "ND",
    "MOSAIC"
],
  "ImagingFrequency": 123.25,
  "InPlanePhaseEncodingDirectionDICOM": "ROW",
  "InstitutionAddress": "Washington and Faculty Rd. - Building 25 25,Princeton,NJ,US,08540",
  "InstitutionName": "Princeton University - Neuroscience Institute",
  "InstitutionalDepartmentName": "Department",
  "MRAcquisitionType": "2D",
  "MagneticFieldStrength": 3,
  "Manufacturer": "Siemens",
  "ManufacturersModelName": "Skyra",
  "Modality": "MR",
  "MultibandAccelerationFactor": 2,
  "NonlinearGradientCorrection": false,
  "PartialFourier": 1,
  "PatientPosition": "HFS",
  "PercentPhaseFOV": 100,
  "PercentSampling": 100,
  "PhaseEncodingDirection": "i",
  "PhaseEncodingSteps": 74,
  "PhaseResolution": 1,
  "PixelBandwidth": 2250,
  "ProcedureStepDescription": "NormaL_Robert^Tangrams",
  "ProtocolName": "func_task-Repeated_run-06",
  "PulseSequenceDetails": "%SiemensSeq%\\ep2d_bold",
  "ReceiveCoilActiveElements": "HC1-7",
  "ReceiveCoilName": "HeadNeck_64",
  "ReconMatrixPE": 74,
  "RefLinesPE": 12,
  "RepetitionTime": 2.27,
  "SAR": 0.0814764,
  "ScanOptions": "FS",
  "ScanningSequence": "EP",
  "SequenceName": "*epfid2d1_74",
  "SequenceVariant": "SK",
  "SeriesDescription": "func_task-Repeated_run-06",
  "SeriesNumber": 18,
  "ShimSetting": [3355, 8711, 9148, 430, 126, -734, 132, 153],
  "SliceThickness": 3,
  "SliceTiming": [1.0925, 0, 1.1575, 0.065, 1.22, 0.1275, 1.285, 0.1925, 1.35, 0.2575, 1.415, 0.3225, 1.4775, 0.385, 1.5425, 0.45, 1.6075, 0.515, 1.67, 0.5775, 1.735, 0.6425, 1.8, 0.7075, 1.865, 0.7725, 1.9275, 0.835, 1.9925, 0.9, 2.0575, 0.965, 2.12, 1.0275, 2.185, 1.0925, 0, 1.1575, 0.065, 1.22, 0.1275, 1.285, 0.1925, 1.35, 0.2575, 1.415, 0.3225, 1.4775, 0.385, 1.5425, 0.45, 1.6075, 0.515, 1.67, 0.5775, 1.735, 0.6425, 1.8, 0.7075, 1.865, 0.7725, 1.9275, 0.835, 1.9925, 0.9, 2.0575, 0.965, 2.12, 1.0275, 2.185],
  "SoftwareVersions": "syngo MR E11",
  "SpacingBetweenSlices": 3,
  "StationName": "AWP45031",
  "TaskName": "Repeated",
  "TotalReadoutTime": 0.0386903,
  "TxRefAmp": 313.805,
  "dcmmeta_affine": [
    [-0.10618573427200317, 0.04838338494300842, -2.997729778289795, 104.36914825439453],
    [-2.9646177291870117, -0.4488685429096222, 0.09776809811592102, 88.45043182373047],
    [-0.44695207476615906, 2.965834856033325, 0.06370055675506592, -90.15190124511719],
    [0.0, 0.0, 0.0, 1.0]
],
  "dcmmeta_reorient_transform": [
    [0.0, -1.0, 0.0, 73.0],
    [1.0, 0.0, 0.0, 0.0],
    [0.0, 0.0, 1.0, 0.0],
    [0.0, 0.0, 0.0, 1.0]
],
  "dcmmeta_shape": [74, 74, 70, 142],
  "dcmmeta_slice_dim": 2,
  "dcmmeta_version": 0.6,
  "global": {
    "const": {
      "AcquisitionMatrix": [0, 74, 74, 0],
      "AngioFlag": "N",
      "BitsAllocated": 16,
      "BitsStored": 12,
      "BodyPartExamined": "BRAIN",
      "Columns": 666,
      "EchoNumbers": 1,
      "EchoTime": 28.0,
      "EchoTrainLength": 74,
      "FlipAngle": 80.0,
      "HighBit": 11,
      "ImageOrientationPatient": [0.03539524501934, 0.98820591773212, -0.1489840286381, 0.01612779501243, -0.1496228504797, -0.9886116006008],
      "ImagePositionPatient": [-153.65359249223, -800.34478783508, 1136.538959715],
      "ImageType": [
        "ORIGINAL",
        "PRIMARY",
        "M",
        "ND",
        "MOSAIC"
],
      "ImagedNucleus": "1H",
      "ImagingFrequency": 123.250159,
      "InPlanePhaseEncodingDirection": "ROW",
      "MRAcquisitionType": "2D",
      "MagneticFieldStrength": 3.0,
      "Manufacturer": "SIEMENS",
      "ManufacturerModelName": "Skyra",
      "Modality": "MR",
      "NumberOfAverages": 1.0,
      "NumberOfPhaseEncodingSteps": 74,
      "PercentPhaseFieldOfView": 100.0,
      "PercentSampling": 100.0,
      "PerformedProcedureStepStartTime": "112057.529000",
      "PhotometricInterpretation": "MONOCHROME2",
      "PixelBandwidth": 2250.0,
      "PixelRepresentation": 0,
      "PixelSpacing": [3.0, 3.0],
      "ProtocolName": "func_task-Repeated_run-06",
      "RepetitionTime": 2270.0,
      "Rows": 666,
      "SAR": 0.08147641503216,
      "SamplesPerPixel": 1,
      "ScanOptions": "FS",
      "ScanningSequence": "EP",
      "SequenceName": "*epfid2d1_74",
      "SequenceVariant": "SK",
      "SeriesDescription": "func_task-Repeated_run-06",
      "SeriesNumber": 18,
      "SeriesTime": "131550.037000",
      "SliceLocation": -103.32186316719,
      "SliceThickness": 3.0,
      "SmallestImagePixelValue": 0,
      "SoftwareVersions": "syngo MR E11",
      "SpacingBetweenSlices": 3.0000000138739,
      "SpecificCharacterSet": "ISO_IR 100",
      "StudyID": "1",
      "StudyTime": "112057.452000",
      "TransmitCoilName": "Body",
      "VariableFlipAngleFlag": "N",
      "WindowCenterWidthExplanation": "Algo1",
      "dBdt": 0.0},
    "slices": {}
  },
  "time": {
    "samples": {
      "AcquisitionNumber": [1, 2, 3, 4, 5, 6, 7, 8, 9, 10, 11, 12, 13, 14, 15, 16, 17, 18, 19, 20, 21, 22, 23, 24, 25, 26, 27, 28, 29, 30, 31, 32, 33, 34, 35, 36, 37, 38, 39, 40, 41, 42, 43, 44, 45, 46, 47, 48, 49, 50, 51, 52, 53, 54, 55, 56, 57, 58, 59, 60, 61, 62, 63, 64, 65, 66, 67, 68, 69, 70, 71, 72, 73, 74, 75, 76, 77, 78, 79, 80, 81, 82, 83, 84, 85, 86, 87, 88, 89, 90, 91, 92, 93, 94, 95, 96, 97, 98, 99, 100, 101, 102, 103, 104, 105, 106, 107, 108, 109, 110, 111, 112, 113, 114, 115, 116, 117, 118, 119, 120, 121, 122, 123, 124, 125, 126, 127, 128, 129, 130, 131, 132, 133, 134, 135, 136, 137, 138, 139, 140, 141, 142],
      "AcquisitionTime": ["131547.447500", "131549.717500", "131551.987500", "131554.257500", "131556.527500", "131558.797500", "131601.067500", "131603.337500", "131605.607500", "131607.877500", "131610.147500", "131612.417500", "131614.687500", "131616.957500", "131619.227500", "131621.497500", "131623.767500", "131626.037500", "131628.307500", "131630.577500", "131632.847500", "131635.117500", "131637.387500", "131639.657500", "131641.927500", "131644.197500", "131646.467500", "131648.737500", "131651.007500", "131653.277500", "131655.547500", "131657.817500", "131700.087500", "131702.357500", "131704.627500", "131706.897500", "131709.167500", "131711.437500", "131713.707500", "131715.977500", "131718.247500", "131720.517500", "131722.787500", "131725.057500", "131727.327500", "131729.597500", "131731.867500", "131734.137500", "131736.407500", "131738.677500", "131740.947500", "131743.217500", "131745.487500", "131747.757500", "131750.027500", "131752.297500", "131754.567500", "131756.837500", "131759.107500", "131801.377500", "131803.647500", "131805.917500", "131808.187500", "131810.457500", "131812.727500", "131814.997500", "131817.267500", "131819.537500", "131821.807500", "131824.077500", "131826.347500", "131828.617500", "131830.887500", "131833.157500", "131835.427500", "131837.697500", "131839.967500", "131842.237500", "131844.507500", "131846.777500", "131849.047500", "131851.317500", "131853.587500", "131855.857500", "131858.127500", "131900.397500", "131902.667500", "131904.937500", "131907.207500", "131909.477500", "131911.747500", "131914.017500", "131916.287500", "131918.557500", "131920.827500", "131923.097500", "131925.367500", "131927.637500", "131929.907500", "131932.177500", "131934.447500", "131936.717500", "131938.987500", "131941.257500", "131943.527500", "131945.797500", "131948.067500", "131950.337500", "131952.607500", "131954.877500", "131957.147500", "131959.417500", "132001.687500", "132003.957500", "132006.227500", "132008.497500", "132010.767500", "132013.037500", "132015.307500", "132017.577500", "132019.847500", "132022.117500", "132024.387500", "132026.657500", "132028.927500", "132031.197500", "132033.467500", "132035.737500", "132038.007500", "132040.277500", "132042.547500", "132044.817500", "132047.087500", "132049.357500", "132051.627500", "132053.897500", "132056.167500", "132058.437500", "132100.707500", "132102.977500", "132105.247500", "132107.517500"],
      "ContentTime": ["131550.041000", "131552.535000", "131554.535000", "131557.035000", "131559.035000", "131601.535000", "131603.535000", "131606.035000", "131608.036000", "131610.535000", "131612.535000", "131615.035000", "131617.035000", "131619.535000", "131622.035000", "131624.035000", "131626.535000", "131628.535000", "131631.035000", "131633.035000", "131635.535000", "131637.535000", "131640.035000", "131642.036000", "131644.535000", "131646.535000", "131649.035000", "131651.035000", "131653.535000", "131656.035000", "131658.035000", "131700.536000", "131702.535000", "131705.035000", "131707.035000", "131709.535000", "131711.535000", "131714.035000", "131716.535000", "131718.536000", "131721.035000", "131723.035000", "131725.535000", "131727.535000", "131730.035000", "131732.035000", "131734.536000", "131736.535000", "131739.035000", "131741.035000", "131743.535000", "131746.035000", "131748.035000", "131750.535000", "131752.536000", "131755.035000", "131757.035000", "131759.535000", "131801.535000", "131804.035000", "131806.035000", "131808.535000", "131810.536000", "131813.035000", "131815.535000", "131817.535000", "131820.035000", "131822.035000", "131824.535000", "131826.536000", "131829.035000", "131831.035000", "131833.535000", "131835.535000", "131838.035000", "131840.035000", "131842.535000", "131845.036000", "131847.035000", "131849.535000", "131851.535000", "131854.035000", "131856.035000", "131858.535000", "131900.535000", "131903.036000", "131905.035000", "131907.535000", "131909.535000", "131912.035000", "131914.535000", "131916.535000", "131919.036000", "131921.036000", "131923.535000", "131925.535000", "131928.035000", "131930.035000", "131932.535000", "131934.535000", "131937.036000", "131939.535000", "131941.535000", "131944.035000", "131946.035000", "131948.535000", "131950.535000", "131953.035000", "131955.036000", "131957.535000", "131959.535000", "132002.035000", "132004.035000", "132006.535000", "132009.035000", "132011.035000", "132013.536000", "132015.535000", "132018.035000", "132020.035000", "132022.535000", "132024.535000", "132027.035000", "132029.036000", "132031.535000", "132034.035000", "132036.035000", "132038.535000", "132040.535000", "132043.035000", "132045.035000", "132047.536000", "132049.535000", "132052.035000", "132054.035000", "132056.535000", "132058.535000", "132101.035000", "132103.035000", "132105.536000", "132108.035000", "132110.035000"],
      "InstanceCreationTime": ["131550.041000", "131552.535000", "131554.535000", "131557.035000", "131559.035000", "131601.535000", "131603.535000", "131606.035000", "131608.036000", "131610.535000", "131612.535000", "131615.035000", "131617.035000", "131619.535000", "131622.035000", "131624.035000", "131626.535000", "131628.535000", "131631.035000", "131633.035000", "131635.535000", "131637.535000", "131640.035000", "131642.036000", "131644.535000", "131646.535000", "131649.035000", "131651.035000", "131653.535000", "131656.035000", "131658.035000", "131700.536000", "131702.535000", "131705.035000", "131707.035000", "131709.535000", "131711.535000", "131714.035000", "131716.535000", "131718.536000", "131721.035000", "131723.035000", "131725.535000", "131727.535000", "131730.035000", "131732.035000", "131734.536000", "131736.535000", "131739.035000", "131741.035000", "131743.535000", "131746.035000", "131748.035000", "131750.535000", "131752.536000", "131755.035000", "131757.035000", "131759.535000", "131801.535000", "131804.035000", "131806.035000", "131808.535000", "131810.536000", "131813.035000", "131815.535000", "131817.535000", "131820.035000", "131822.035000", "131824.535000", "131826.536000", "131829.035000", "131831.035000", "131833.535000", "131835.535000", "131838.035000", "131840.035000", "131842.535000", "131845.036000", "131847.035000", "131849.535000", "131851.535000", "131854.035000", "131856.035000", "131858.535000", "131900.535000", "131903.036000", "131905.035000", "131907.535000", "131909.535000", "131912.035000", "131914.535000", "131916.535000", "131919.036000", "131921.036000", "131923.535000", "131925.535000", "131928.035000", "131930.035000", "131932.535000", "131934.535000", "131937.036000", "131939.535000", "131941.535000", "131944.035000", "131946.035000", "131948.535000", "131950.535000", "131953.035000", "131955.036000", "131957.535000", "131959.535000", "132002.035000", "132004.035000", "132006.535000", "132009.035000", "132011.035000", "132013.536000", "132015.535000", "132018.035000", "132020.035000", "132022.535000", "132024.535000", "132027.035000", "132029.036000", "132031.535000", "132034.035000", "132036.035000", "132038.535000", "132040.535000", "132043.035000", "132045.035000", "132047.536000", "132049.535000", "132052.035000", "132054.035000", "132056.535000", "132058.535000", "132101.035000", "132103.035000", "132105.536000", "132108.035000", "132110.035000"],
      "InstanceNumber": [1, 2, 3, 4, 5, 6, 7, 8, 9, 10, 11, 12, 13, 14, 15, 16, 17, 18, 19, 20, 21, 22, 23, 24, 25, 26, 27, 28, 29, 30, 31, 32, 33, 34, 35, 36, 37, 38, 39, 40, 41, 42, 43, 44, 45, 46, 47, 48, 49, 50, 51, 52, 53, 54, 55, 56, 57, 58, 59, 60, 61, 62, 63, 64, 65, 66, 67, 68, 69, 70, 71, 72, 73, 74, 75, 76, 77, 78, 79, 80, 81, 82, 83, 84, 85, 86, 87, 88, 89, 90, 91, 92, 93, 94, 95, 96, 97, 98, 99, 100, 101, 102, 103, 104, 105, 106, 107, 108, 109, 110, 111, 112, 113, 114, 115, 116, 117, 118, 119, 120, 121, 122, 123, 124, 125, 126, 127, 128, 129, 130, 131, 132, 133, 134, 135, 136, 137, 138, 139, 140, 141, 142],
      "LargestImagePixelValue": [2169, 2148, 2169, 2151, 2151, 2164, 2181, 2183, 2197, 2196, 2170, 2181, 2163, 2172, 2169, 2162, 2161, 2172, 2136, 2160, 2176, 2203, 2214, 2217, 2194, 2162, 2140, 2162, 2176, 2188, 2190, 2179, 2178, 2130, 2155, 2152, 2170, 2152, 2172, 2184, 2205, 2195, 2189, 2162, 2162, 2124, 2135, 2128, 2151, 2141, 2152, 2159, 2153, 2163, 2162, 2150, 2150, 2153, 2151, 2179, 2162, 2170, 2195, 2178, 2160, 2148, 2150, 2155, 2168, 2161, 2163, 2179, 2154, 2127, 2130, 2134, 2129, 2150, 2158, 2167, 2171, 2162, 2162, 2158, 2157, 2164, 2173, 2138, 2126, 2192, 2188, 2178, 2182, 2146, 2112, 2133, 2143, 2150, 2148, 2148, 2174, 2183, 2184, 2179, 2176, 2160, 2171, 2169, 2167, 2206, 2183, 2189, 2179, 2162, 2155, 2146, 2159, 2166, 2163, 2160, 2161, 2167, 2179, 2177, 2188, 2187, 2190, 2191, 2182, 2177, 2191, 2195, 2178, 2167, 2179, 2159, 2193, 2187, 2181, 2145, 2115, 2073],
      "WindowCenter": [642.0, 641.0, 640.0, 640.0, 640.0, 642.0, 642.0, 641.0, 642.0, 640.0, 640.0, 640.0, 639.0, 639.0, 639.0, 640.0, 641.0, 640.0, 640.0, 641.0, 641.0, 639.0, 638.0, 638.0, 636.0, 636.0, 638.0, 638.0, 640.0, 641.0, 640.0, 638.0, 637.0, 636.0, 636.0, 636.0, 637.0, 638.0, 640.0, 641.0, 641.0, 640.0, 639.0, 636.0, 632.0, 631.0, 632.0, 632.0, 634.0, 635.0, 637.0, 638.0, 639.0, 637.0, 634.0, 635.0, 636.0, 637.0, 638.0, 640.0, 639.0, 639.0, 638.0, 637.0, 636.0, 636.0, 637.0, 637.0, 638.0, 638.0, 638.0, 637.0, 633.0, 631.0, 633.0, 636.0, 637.0, 638.0, 638.0, 638.0, 637.0, 637.0, 637.0, 637.0, 638.0, 638.0, 639.0, 640.0, 640.0, 642.0, 638.0, 635.0, 634.0, 633.0, 633.0, 635.0, 637.0, 638.0, 638.0, 641.0, 641.0, 638.0, 637.0, 637.0, 638.0, 639.0, 640.0, 638.0, 639.0, 642.0, 641.0, 639.0, 637.0, 636.0, 636.0, 636.0, 637.0, 638.0, 637.0, 636.0, 636.0, 638.0, 638.0, 638.0, 639.0, 640.0, 640.0, 638.0, 638.0, 639.0, 640.0, 640.0, 639.0, 639.0, 639.0, 639.0, 642.0, 639.0, 637.0, 635.0, 634.0, 632.0],
      "WindowWidth": [1395.0, 1393.0, 1391.0, 1391.0, 1391.0, 1395.0, 1395.0, 1393.0, 1395.0, 1391.0, 1390.0, 1390.0, 1386.0, 1386.0, 1388.0, 1390.0, 1392.0, 1390.0, 1389.0, 1392.0, 1393.0, 1388.0, 1386.0, 1384.0, 1380.0, 1379.0, 1384.0, 1385.0, 1391.0, 1392.0, 1389.0, 1385.0, 1381.0, 1378.0, 1378.0, 1379.0, 1381.0, 1385.0, 1389.0, 1392.0, 1392.0, 1391.0, 1388.0, 1378.0, 1369.0, 1366.0, 1369.0, 1369.0, 1373.0, 1377.0, 1381.0, 1384.0, 1388.0, 1382.0, 1374.0, 1376.0, 1379.0, 1381.0, 1385.0, 1389.0, 1388.0, 1388.0, 1385.0, 1383.0, 1380.0, 1380.0, 1381.0, 1381.0, 1383.0, 1383.0, 1386.0, 1382.0, 1371.0, 1366.0, 1371.0, 1380.0, 1383.0, 1384.0, 1385.0, 1384.0, 1382.0, 1382.0, 1381.0, 1382.0, 1385.0, 1384.0, 1386.0, 1389.0, 1391.0, 1394.0, 1384.0, 1376.0, 1372.0, 1370.0, 1372.0, 1377.0, 1382.0, 1384.0, 1384.0, 1391.0, 1391.0, 1385.0, 1382.0, 1382.0, 1385.0, 1386.0, 1388.0, 1385.0, 1389.0, 1395.0, 1392.0, 1386.0, 1382.0, 1378.0, 1378.0, 1379.0, 1380.0, 1385.0, 1383.0, 1378.0, 1378.0, 1383.0, 1385.0, 1385.0, 1387.0, 1390.0, 1390.0, 1385.0, 1384.0, 1387.0, 1390.0, 1389.0, 1386.0, 1388.0, 1387.0, 1388.0, 1396.0, 1386.0, 1380.0, 1377.0, 1375.0, 1367.0]
    },
    "slices": {}
  }
}