{
  "AcquisitionMatrixPE": 74,
  "AcquisitionNumber": 1,
  "AcquisitionTime": "13:35:50.785000",
  "BandwidthPerPixelPhaseEncode": 25.497,
  "BaseResolution": 74,
  "BodyPartExamined": "BRAIN",
  "CoilCombinationMethod": "Sum of Squares",
  "ConsistencyInfo": "N4_VE11C_LATEST_20160120",
  "ConversionSoftware": "dcm2niix",
  "ConversionSoftwareVersion": "v1.0.20220720",
  "DerivedVendorReportedEchoSpacing": 0.000530004,
  "DeviceSerialNumber": "45031",
  "DwellTime": 3e-06,
  "EchoTime": 0.028,
  "EchoTrainLength": 74,
  "EffectiveEchoSpacing": 0.000530004,
  "FlipAngle": 80,
  "HeudiconvVersion": "0.12.2",
  "ImageOrientationPatientDICOM": [0.0353952, 0.988206, -0.148984, 0.0161278, -0.149623, -0.988612],
  "ImageOrientationText": "Sag>Cor(1.9)>Tra(-1.2)",
  "ImageType": [
    "ORIGINAL",
    "PRIMARY",
    "M",
    "ND",
    "MOSAIC"
],
  "ImagingFrequency": 123.25,
  "InPlanePhaseEncodingDirectionDICOM": "ROW",
  "InstitutionAddress": "Washington and Faculty Rd. - Building 25 25,Princeton,NJ,US,08540",
  "InstitutionName": "Princeton University - Neuroscience Institute",
  "InstitutionalDepartmentName": "Department",
  "MRAcquisitionType": "2D",
  "MagneticFieldStrength": 3,
  "Manufacturer": "Siemens",
  "ManufacturersModelName": "Skyra",
  "Modality": "MR",
  "MultibandAccelerationFactor": 2,
  "NonlinearGradientCorrection": false,
  "PartialFourier": 1,
  "PatientPosition": "HFS",
  "PercentPhaseFOV": 100,
  "PercentSampling": 100,
  "PhaseEncodingDirection": "i",
  "PhaseEncodingSteps": 74,
  "PhaseResolution": 1,
  "PixelBandwidth": 2250,
  "ProcedureStepDescription": "NormaL_Robert^Tangrams",
  "ProtocolName": "func_task-PostExposure_run-01",
  "PulseSequenceDetails": "%SiemensSeq%\\ep2d_bold",
  "ReceiveCoilActiveElements": "HC1-7",
  "ReceiveCoilName": "HeadNeck_64",
  "ReconMatrixPE": 74,
  "RefLinesPE": 12,
  "RepetitionTime": 2.27,
  "SAR": 0.0814775,
  "ScanOptions": "FS",
  "ScanningSequence": "EP",
  "SequenceName": "*epfid2d1_74",
  "SequenceVariant": "SK",
  "SeriesDescription": "func_task-PostExposure_run-01",
  "SeriesNumber": 20,
  "ShimSetting": [3355, 8711, 9148, 430, 126, -734, 132, 153],
  "SliceThickness": 3,
  "SliceTiming": [1.0925, 0, 1.155, 0.0625, 1.22, 0.1275, 1.285, 0.1925, 1.3475, 0.255, 1.4125, 0.32, 1.4775, 0.385, 1.5425, 0.45, 1.605, 0.5125, 1.67, 0.5775, 1.735, 0.6425, 1.7975, 0.705, 1.8625, 0.77, 1.9275, 0.835, 1.9925, 0.9, 2.055, 0.9625, 2.12, 1.0275, 2.185, 1.0925, 0, 1.155, 0.0625, 1.22, 0.1275, 1.285, 0.1925, 1.3475, 0.255, 1.4125, 0.32, 1.4775, 0.385, 1.5425, 0.45, 1.605, 0.5125, 1.67, 0.5775, 1.735, 0.6425, 1.7975, 0.705, 1.8625, 0.77, 1.9275, 0.835, 1.9925, 0.9, 2.055, 0.9625, 2.12, 1.0275, 2.185],
  "SoftwareVersions": "syngo MR E11",
  "SpacingBetweenSlices": 3,
  "StationName": "AWP45031",
  "TaskName": "PostExposure",
  "TotalReadoutTime": 0.0386903,
  "TxRefAmp": 313.805,
  "dcmmeta_affine": [
    [-0.10618573427200317, 0.04838338494300842, -2.997729778289795, 104.36914825439453],
    [-2.9646177291870117, -0.4488685429096222, 0.09776809811592102, 88.45043182373047],
    [-0.44695207476615906, 2.965834856033325, 0.06370055675506592, -90.15190124511719],
    [0.0, 0.0, 0.0, 1.0]
],
  "dcmmeta_reorient_transform": [
    [0.0, -1.0, 0.0, 73.0],
    [1.0, 0.0, 0.0, 0.0],
    [0.0, 0.0, 1.0, 0.0],
    [0.0, 0.0, 0.0, 1.0]
],
  "dcmmeta_shape": [74, 74, 70, 124],
  "dcmmeta_slice_dim": 2,
  "dcmmeta_version": 0.6,
  "global": {
    "const": {
      "AcquisitionMatrix": [0, 74, 74, 0],
      "AngioFlag": "N",
      "BitsAllocated": 16,
      "BitsStored": 12,
      "BodyPartExamined": "BRAIN",
      "Columns": 666,
      "EchoNumbers": 1,
      "EchoTime": 28.0,
      "EchoTrainLength": 74,
      "FlipAngle": 80.0,
      "HighBit": 11,
      "ImageOrientationPatient": [0.03539524501934, 0.98820591773212, -0.1489840286381, 0.01612779501243, -0.1496228504797, -0.9886116006008],
      "ImagePositionPatient": [-153.65359249223, -800.34478783508, 1136.538959715],
      "ImageType": [
        "ORIGINAL",
        "PRIMARY",
        "M",
        "ND",
        "MOSAIC"
],
      "ImagedNucleus": "1H",
      "ImagingFrequency": 123.250193,
      "InPlanePhaseEncodingDirection": "ROW",
      "MRAcquisitionType": "2D",
      "MagneticFieldStrength": 3.0,
      "Manufacturer": "SIEMENS",
      "ManufacturerModelName": "Skyra",
      "Modality": "MR",
      "NumberOfAverages": 1.0,
      "NumberOfPhaseEncodingSteps": 74,
      "PercentPhaseFieldOfView": 100.0,
      "PercentSampling": 100.0,
      "PerformedProcedureStepStartTime": "112057.529000",
      "PhotometricInterpretation": "MONOCHROME2",
      "PixelBandwidth": 2250.0,
      "PixelRepresentation": 0,
      "PixelSpacing": [3.0, 3.0],
      "ProtocolName": "func_task-PostExposure_run-01",
      "RepetitionTime": 2270.0,
      "Rows": 666,
      "SAR": 0.08147752761304,
      "SamplesPerPixel": 1,
      "ScanOptions": "FS",
      "ScanningSequence": "EP",
      "SequenceName": "*epfid2d1_74",
      "SequenceVariant": "SK",
      "SeriesDescription": "func_task-PostExposure_run-01",
      "SeriesNumber": 20,
      "SeriesTime": "133553.427000",
      "SliceLocation": -103.32186316719,
      "SliceThickness": 3.0,
      "SmallestImagePixelValue": 0,
      "SoftwareVersions": "syngo MR E11",
      "SpacingBetweenSlices": 3.0000000138739,
      "SpecificCharacterSet": "ISO_IR 100",
      "StudyID": "1",
      "StudyTime": "112057.452000",
      "TransmitCoilName": "Body",
      "VariableFlipAngleFlag": "N",
      "WindowCenterWidthExplanation": "Algo1",
      "dBdt": 0.0},
    "slices": {}
  },
  "time": {
    "samples": {
      "AcquisitionNumber": [1, 2, 3, 4, 5, 6, 7, 8, 9, 10, 11, 12, 13, 14, 15, 16, 17, 18, 19, 20, 21, 22, 23, 24, 25, 26, 27, 28, 29, 30, 31, 32, 33, 34, 35, 36, 37, 38, 39, 40, 41, 42, 43, 44, 45, 46, 47, 48, 49, 50, 51, 52, 53, 54, 55, 56, 57, 58, 59, 60, 61, 62, 63, 64, 65, 66, 67, 68, 69, 70, 71, 72, 73, 74, 75, 76, 77, 78, 79, 80, 81, 82, 83, 84, 85, 86, 87, 88, 89, 90, 91, 92, 93, 94, 95, 96, 97, 98, 99, 100, 101, 102, 103, 104, 105, 106, 107, 108, 109, 110, 111, 112, 113, 114, 115, 116, 117, 118, 119, 120, 121, 122, 123, 124],
      "AcquisitionTime": ["133550.785000", "133553.055000", "133555.325000", "133557.595000", "133559.865000", "133602.135000", "133604.405000", "133606.675000", "133608.945000", "133611.215000", "133613.485000", "133615.755000", "133618.025000", "133620.295000", "133622.565000", "133624.835000", "133627.105000", "133629.375000", "133631.645000", "133633.915000", "133636.185000", "133638.455000", "133640.725000", "133642.995000", "133645.265000", "133647.535000", "133649.805000", "133652.075000", "133654.345000", "133656.615000", "133658.885000", "133701.155000", "133703.425000", "133705.695000", "133707.965000", "133710.235000", "133712.505000", "133714.775000", "133717.045000", "133719.315000", "133721.585000", "133723.855000", "133726.125000", "133728.395000", "133730.665000", "133732.935000", "133735.205000", "133737.475000", "133739.745000", "133742.015000", "133744.285000", "133746.555000", "133748.825000", "133751.095000", "133753.365000", "133755.635000", "133757.905000", "133800.175000", "133802.445000", "133804.715000", "133806.985000", "133809.255000", "133811.525000", "133813.795000", "133816.065000", "133818.335000", "133820.605000", "133822.875000", "133825.145000", "133827.415000", "133829.685000", "133831.955000", "133834.225000", "133836.495000", "133838.765000", "133841.035000", "133843.305000", "133845.575000", "133847.845000", "133850.115000", "133852.385000", "133854.655000", "133856.925000", "133859.195000", "133901.465000", "133903.735000", "133906.005000", "133908.275000", "133910.545000", "133912.815000", "133915.085000", "133917.355000", "133919.625000", "133921.895000", "133924.165000", "133926.435000", "133928.705000", "133930.975000", "133933.245000", "133935.515000", "133937.785000", "133940.055000", "133942.325000", "133944.595000", "133946.865000", "133949.135000", "133951.405000", "133953.675000", "133955.945000", "133958.215000", "134000.485000", "134002.755000", "134005.025000", "134007.295000", "134009.565000", "134011.835000", "134014.105000", "134016.375000", "134018.645000", "134020.915000", "134023.185000", "134025.455000", "134027.725000", "134029.995000"],
      "ContentTime": ["133553.431000", "133555.426000", "133557.926000", "133559.926000", "133602.426000", "133604.426000", "133606.926000", "133608.926000", "133611.426000", "133613.927000", "133615.926000", "133618.426000", "133620.426000", "133622.926000", "133624.926000", "133627.426000", "133629.426000", "133631.927000", "133633.926000", "133636.426000", "133638.426000", "133640.926000", "133642.926000", "133645.426000", "133647.926000", "133649.926000", "133652.426000", "133654.426000", "133656.926000", "133658.926000", "133701.426000", "133703.426000", "133705.927000", "133707.926000", "133710.426000", "133712.926000", "133714.926000", "133717.426000", "133719.426000", "133721.926000", "133723.927000", "133726.426000", "133728.426000", "133730.926000", "133732.926000", "133735.426000", "133737.426000", "133739.926000", "133742.426000", "133744.426000", "133746.926000", "133748.926000", "133751.426000", "133753.426000", "133755.926000", "133757.927000", "133800.426000", "133802.426000", "133804.926000", "133806.926000", "133809.426000", "133811.926000", "133813.926000", "133816.427000", "133818.426000", "133820.926000", "133822.926000", "133825.426000", "133827.426000", "133829.926000", "133831.926000", "133834.427000", "133836.426000", "133838.926000", "133841.426000", "133843.426000", "133845.926000", "133847.926000", "133850.427000", "133852.426000", "133854.926000", "133856.926000", "133859.426000", "133901.426000", "133903.926000", "133906.426000", "133908.427000", "133910.926000", "133912.926000", "133915.426000", "133917.426000", "133919.926000", "133921.926000", "133924.426000", "133926.427000", "133928.926000", "133930.926000", "133933.426000", "133935.926000", "133937.927000", "133940.426000", "133942.435000", "133944.926000", "133946.926000", "133949.426000", "133951.426000", "133953.926000", "133956.426000", "133958.426000", "134000.427000", "134002.926000", "134005.426000", "134007.426000", "134009.926000", "134011.926000", "134014.426000", "134016.426000", "134018.927000", "134020.926000", "134023.426000", "134025.426000", "134027.927000", "134030.426000", "134032.426000"],
      "InstanceCreationTime": ["133553.431000", "133555.426000", "133557.926000", "133559.926000", "133602.426000", "133604.426000", "133606.926000", "133608.926000", "133611.426000", "133613.927000", "133615.926000", "133618.426000", "133620.426000", "133622.926000", "133624.926000", "133627.426000", "133629.426000", "133631.927000", "133633.926000", "133636.426000", "133638.426000", "133640.926000", "133642.926000", "133645.426000", "133647.926000", "133649.926000", "133652.426000", "133654.426000", "133656.926000", "133658.926000", "133701.426000", "133703.426000", "133705.927000", "133707.926000", "133710.426000", "133712.926000", "133714.926000", "133717.426000", "133719.426000", "133721.926000", "133723.927000", "133726.426000", "133728.426000", "133730.926000", "133732.926000", "133735.426000", "133737.426000", "133739.926000", "133742.426000", "133744.426000", "133746.926000", "133748.926000", "133751.426000", "133753.426000", "133755.926000", "133757.927000", "133800.426000", "133802.426000", "133804.926000", "133806.926000", "133809.426000", "133811.926000", "133813.926000", "133816.427000", "133818.426000", "133820.926000", "133822.926000", "133825.426000", "133827.426000", "133829.926000", "133831.926000", "133834.427000", "133836.426000", "133838.926000", "133841.426000", "133843.426000", "133845.926000", "133847.926000", "133850.427000", "133852.426000", "133854.926000", "133856.926000", "133859.426000", "133901.426000", "133903.926000", "133906.426000", "133908.427000", "133910.926000", "133912.926000", "133915.426000", "133917.426000", "133919.926000", "133921.926000", "133924.426000", "133926.427000", "133928.926000", "133930.926000", "133933.426000", "133935.926000", "133937.927000", "133940.426000", "133942.435000", "133944.926000", "133946.926000", "133949.426000", "133951.426000", "133953.926000", "133956.426000", "133958.426000", "134000.427000", "134002.926000", "134005.426000", "134007.426000", "134009.926000", "134011.926000", "134014.426000", "134016.426000", "134018.927000", "134020.926000", "134023.426000", "134025.426000", "134027.927000", "134030.426000", "134032.426000"],
      "InstanceNumber": [1, 2, 3, 4, 5, 6, 7, 8, 9, 10, 11, 12, 13, 14, 15, 16, 17, 18, 19, 20, 21, 22, 23, 24, 25, 26, 27, 28, 29, 30, 31, 32, 33, 34, 35, 36, 37, 38, 39, 40, 41, 42, 43, 44, 45, 46, 47, 48, 49, 50, 51, 52, 53, 54, 55, 56, 57, 58, 59, 60, 61, 62, 63, 64, 65, 66, 67, 68, 69, 70, 71, 72, 73, 74, 75, 76, 77, 78, 79, 80, 81, 82, 83, 84, 85, 86, 87, 88, 89, 90, 91, 92, 93, 94, 95, 96, 97, 98, 99, 100, 101, 102, 103, 104, 105, 106, 107, 108, 109, 110, 111, 112, 113, 114, 115, 116, 117, 118, 119, 120, 121, 122, 123, 124],
      "LargestImagePixelValue": [2160, 2161, 2174, 2162, 2177, 2178, 2177, 2178, 2175, 2186, 2176, 2193, 2160, 2160, 2166, 2153, 2145, 2120, 2136, 2141, 2135, 2149, 2132, 2147, 2159, 2174, 2182, 2192, 2159, 2148, 2156, 2152, 2166, 2155, 2144, 2161, 2168, 2173, 2172, 2166, 2145, 2152, 2157, 2169, 2174, 2170, 2162, 2152, 2154, 2178, 2188, 2174, 2180, 2200, 2211, 2172, 2200, 2182, 2176, 2167, 2185, 2195, 2169, 2140, 2134, 2135, 2154, 2151, 2154, 2158, 2164, 2169, 2171, 2179, 2145, 2134, 2152, 2160, 2144, 2122, 2120, 2108, 2086, 2088, 2099, 2131, 2140, 2157, 2140, 2173, 2194, 2191, 2177, 2135, 2158, 2134, 2157, 2141, 2155, 2117, 2114, 2122, 2114, 2151, 2117, 2172, 2165, 2182, 2182, 2138, 2129, 2104, 2130, 2107, 2059, 2033, 2085, 2116, 2161, 2174, 2146, 2160, 2161, 2129],
      "WindowCenter": [637.0, 636.0, 636.0, 636.0, 637.0, 637.0, 636.0, 637.0, 638.0, 638.0, 637.0, 637.0, 638.0, 637.0, 635.0, 634.0, 635.0, 634.0, 634.0, 634.0, 635.0, 636.0, 637.0, 637.0, 637.0, 636.0, 636.0, 635.0, 635.0, 634.0, 634.0, 636.0, 636.0, 635.0, 634.0, 637.0, 637.0, 636.0, 636.0, 637.0, 638.0, 637.0, 636.0, 634.0, 635.0, 635.0, 635.0, 635.0, 636.0, 638.0, 637.0, 637.0, 639.0, 640.0, 639.0, 636.0, 636.0, 637.0, 638.0, 638.0, 639.0, 637.0, 634.0, 635.0, 636.0, 636.0, 636.0, 636.0, 636.0, 636.0, 635.0, 635.0, 636.0, 637.0, 636.0, 636.0, 637.0, 634.0, 630.0, 630.0, 632.0, 632.0, 630.0, 630.0, 634.0, 636.0, 636.0, 636.0, 636.0, 639.0, 639.0, 637.0, 636.0, 637.0, 638.0, 638.0, 636.0, 634.0, 633.0, 633.0, 633.0, 632.0, 633.0, 635.0, 637.0, 638.0, 638.0, 637.0, 635.0, 634.0, 634.0, 636.0, 637.0, 638.0, 635.0, 630.0, 629.0, 627.0, 628.0, 629.0, 630.0, 634.0, 639.0, 640.0],
      "WindowWidth": [1382.0, 1380.0, 1380.0, 1379.0, 1381.0, 1381.0, 1379.0, 1382.0, 1384.0, 1385.0, 1383.0, 1383.0, 1385.0, 1381.0, 1376.0, 1375.0, 1376.0, 1374.0, 1375.0, 1373.0, 1376.0, 1379.0, 1382.0, 1383.0, 1383.0, 1380.0, 1379.0, 1378.0, 1376.0, 1376.0, 1375.0, 1380.0, 1380.0, 1376.0, 1375.0, 1381.0, 1382.0, 1380.0, 1378.0, 1383.0, 1384.0, 1383.0, 1379.0, 1375.0, 1377.0, 1377.0, 1376.0, 1377.0, 1381.0, 1384.0, 1382.0, 1382.0, 1388.0, 1391.0, 1387.0, 1379.0, 1378.0, 1381.0, 1384.0, 1384.0, 1387.0, 1381.0, 1374.0, 1376.0, 1379.0, 1379.0, 1379.0, 1379.0, 1379.0, 1379.0, 1377.0, 1376.0, 1380.0, 1383.0, 1380.0, 1380.0, 1381.0, 1375.0, 1363.0, 1363.0, 1369.0, 1368.0, 1364.0, 1365.0, 1374.0, 1380.0, 1380.0, 1379.0, 1380.0, 1387.0, 1388.0, 1383.0, 1380.0, 1381.0, 1384.0, 1384.0, 1380.0, 1373.0, 1371.0, 1371.0, 1371.0, 1369.0, 1371.0, 1378.0, 1383.0, 1384.0, 1385.0, 1382.0, 1376.0, 1373.0, 1374.0, 1379.0, 1382.0, 1384.0, 1378.0, 1362.0, 1360.0, 1356.0, 1356.0, 1359.0, 1363.0, 1373.0, 1386.0, 1391.0]
    },
    "slices": {}
  }
}