{
  "AcquisitionMatrixPE": 74,
  "AcquisitionNumber": 1,
  "AcquisitionTime": "13:03:14.285000",
  "BandwidthPerPixelPhaseEncode": 25.497,
  "BaseResolution": 74,
  "BodyPartExamined": "BRAIN",
  "CoilCombinationMethod": "Sum of Squares",
  "ConsistencyInfo": "N4_VE11C_LATEST_20160120",
  "ConversionSoftware": "dcm2niix",
  "ConversionSoftwareVersion": "v1.0.20220720",
  "DerivedVendorReportedEchoSpacing": 0.000530004,
  "DeviceSerialNumber": "45031",
  "DwellTime": 3e-06,
  "EchoTime": 0.028,
  "EchoTrainLength": 74,
  "EffectiveEchoSpacing": 0.000530004,
  "FlipAngle": 80,
  "HeudiconvVersion": "0.12.2",
  "ImageOrientationPatientDICOM": [0.0353952, 0.988206, -0.148984, 0.0161278, -0.149623, -0.988612],
  "ImageOrientationText": "Sag>Cor(1.9)>Tra(-1.2)",
  "ImageType": [
    "ORIGINAL",
    "PRIMARY",
    "M",
    "ND",
    "MOSAIC"
],
  "ImagingFrequency": 123.25,
  "InPlanePhaseEncodingDirectionDICOM": "ROW",
  "InstitutionAddress": "Washington and Faculty Rd. - Building 25 25,Princeton,NJ,US,08540",
  "InstitutionName": "Princeton University - Neuroscience Institute",
  "InstitutionalDepartmentName": "Department",
  "MRAcquisitionType": "2D",
  "MagneticFieldStrength": 3,
  "Manufacturer": "Siemens",
  "ManufacturersModelName": "Skyra",
  "Modality": "MR",
  "MultibandAccelerationFactor": 2,
  "NonlinearGradientCorrection": false,
  "PartialFourier": 1,
  "PatientPosition": "HFS",
  "PercentPhaseFOV": 100,
  "PercentSampling": 100,
  "PhaseEncodingDirection": "i",
  "PhaseEncodingSteps": 74,
  "PhaseResolution": 1,
  "PixelBandwidth": 2250,
  "ProcedureStepDescription": "NormaL_Robert^Tangrams",
  "ProtocolName": "func_task-Repeated_run-04",
  "PulseSequenceDetails": "%SiemensSeq%\\ep2d_bold",
  "ReceiveCoilActiveElements": "HC1-7",
  "ReceiveCoilName": "HeadNeck_64",
  "ReconMatrixPE": 74,
  "RefLinesPE": 12,
  "RepetitionTime": 2.27,
  "SAR": 0.0814764,
  "ScanOptions": "FS",
  "ScanningSequence": "EP",
  "SequenceName": "*epfid2d1_74",
  "SequenceVariant": "SK",
  "SeriesDescription": "func_task-Repeated_run-04",
  "SeriesNumber": 16,
  "ShimSetting": [3355, 8711, 9148, 430, 126, -734, 132, 153],
  "SliceThickness": 3,
  "SliceTiming": [1.0925, 0, 1.1575, 0.065, 1.2225, 0.13, 1.285, 0.1925, 1.35, 0.2575, 1.415, 0.3225, 1.48, 0.385, 1.5425, 0.45, 1.6075, 0.515, 1.6725, 0.58, 1.735, 0.6425, 1.8, 0.7075, 1.865, 0.7725, 1.93, 0.835, 1.9925, 0.9, 2.0575, 0.965, 2.1225, 1.03, 2.185, 1.0925, 0, 1.1575, 0.065, 1.2225, 0.13, 1.285, 0.1925, 1.35, 0.2575, 1.415, 0.3225, 1.48, 0.385, 1.5425, 0.45, 1.6075, 0.515, 1.6725, 0.58, 1.735, 0.6425, 1.8, 0.7075, 1.865, 0.7725, 1.93, 0.835, 1.9925, 0.9, 2.0575, 0.965, 2.1225, 1.03, 2.185],
  "SoftwareVersions": "syngo MR E11",
  "SpacingBetweenSlices": 3,
  "StationName": "AWP45031",
  "TaskName": "Repeated",
  "TotalReadoutTime": 0.0386903,
  "TxRefAmp": 313.805,
  "dcmmeta_affine": [
    [-0.10618573427200317, 0.04838338494300842, -2.997729778289795, 104.36914825439453],
    [-2.9646177291870117, -0.4488685429096222, 0.09776809811592102, 88.45043182373047],
    [-0.44695207476615906, 2.965834856033325, 0.06370055675506592, -90.15190124511719],
    [0.0, 0.0, 0.0, 1.0]
],
  "dcmmeta_reorient_transform": [
    [0.0, -1.0, 0.0, 73.0],
    [1.0, 0.0, 0.0, 0.0],
    [0.0, 0.0, 1.0, 0.0],
    [0.0, 0.0, 0.0, 1.0]
],
  "dcmmeta_shape": [74, 74, 70, 151],
  "dcmmeta_slice_dim": 2,
  "dcmmeta_version": 0.6,
  "global": {
    "const": {
      "AcquisitionMatrix": [0, 74, 74, 0],
      "AngioFlag": "N",
      "BitsAllocated": 16,
      "BitsStored": 12,
      "BodyPartExamined": "BRAIN",
      "Columns": 666,
      "EchoNumbers": 1,
      "EchoTime": 28.0,
      "EchoTrainLength": 74,
      "FlipAngle": 80.0,
      "HighBit": 11,
      "ImageOrientationPatient": [0.03539524501934, 0.98820591773212, -0.1489840286381, 0.01612779501243, -0.1496228504797, -0.9886116006008],
      "ImagePositionPatient": [-153.65359249223, -800.34478783508, 1136.538959715],
      "ImageType": [
        "ORIGINAL",
        "PRIMARY",
        "M",
        "ND",
        "MOSAIC"
],
      "ImagedNucleus": "1H",
      "ImagingFrequency": 123.250126,
      "InPlanePhaseEncodingDirection": "ROW",
      "MRAcquisitionType": "2D",
      "MagneticFieldStrength": 3.0,
      "Manufacturer": "SIEMENS",
      "ManufacturerModelName": "Skyra",
      "Modality": "MR",
      "NumberOfAverages": 1.0,
      "NumberOfPhaseEncodingSteps": 74,
      "PercentPhaseFieldOfView": 100.0,
      "PercentSampling": 100.0,
      "PerformedProcedureStepStartTime": "112057.529000",
      "PhotometricInterpretation": "MONOCHROME2",
      "PixelBandwidth": 2250.0,
      "PixelRepresentation": 0,
      "PixelSpacing": [3.0, 3.0],
      "ProtocolName": "func_task-Repeated_run-04",
      "RepetitionTime": 2270.0,
      "Rows": 666,
      "SAR": 0.08147641503216,
      "SamplesPerPixel": 1,
      "ScanOptions": "FS",
      "ScanningSequence": "EP",
      "SequenceName": "*epfid2d1_74",
      "SequenceVariant": "SK",
      "SeriesDescription": "func_task-Repeated_run-04",
      "SeriesNumber": 16,
      "SeriesTime": "130316.769000",
      "SliceLocation": -103.32186316719,
      "SliceThickness": 3.0,
      "SmallestImagePixelValue": 0,
      "SoftwareVersions": "syngo MR E11",
      "SpacingBetweenSlices": 3.0000000138739,
      "SpecificCharacterSet": "ISO_IR 100",
      "StudyID": "1",
      "StudyTime": "112057.452000",
      "TransmitCoilName": "Body",
      "VariableFlipAngleFlag": "N",
      "WindowCenterWidthExplanation": "Algo1",
      "dBdt": 0.0},
    "slices": {}
  },
  "time": {
    "samples": {
      "AcquisitionNumber": [1, 2, 3, 4, 5, 6, 7, 8, 9, 10, 11, 12, 13, 14, 15, 16, 17, 18, 19, 20, 21, 22, 23, 24, 25, 26, 27, 28, 29, 30, 31, 32, 33, 34, 35, 36, 37, 38, 39, 40, 41, 42, 43, 44, 45, 46, 47, 48, 49, 50, 51, 52, 53, 54, 55, 56, 57, 58, 59, 60, 61, 62, 63, 64, 65, 66, 67, 68, 69, 70, 71, 72, 73, 74, 75, 76, 77, 78, 79, 80, 81, 82, 83, 84, 85, 86, 87, 88, 89, 90, 91, 92, 93, 94, 95, 96, 97, 98, 99, 100, 101, 102, 103, 104, 105, 106, 107, 108, 109, 110, 111, 112, 113, 114, 115, 116, 117, 118, 119, 120, 121, 122, 123, 124, 125, 126, 127, 128, 129, 130, 131, 132, 133, 134, 135, 136, 137, 138, 139, 140, 141, 142, 143, 144, 145, 146, 147, 148, 149, 150, 151],
      "AcquisitionTime": ["130314.285000", "130316.555000", "130318.825000", "130321.095000", "130323.365000", "130325.635000", "130327.905000", "130330.175000", "130332.445000", "130334.715000", "130336.985000", "130339.255000", "130341.525000", "130343.795000", "130346.065000", "130348.335000", "130350.605000", "130352.875000", "130355.145000", "130357.415000", "130359.685000", "130401.955000", "130404.225000", "130406.495000", "130408.765000", "130411.035000", "130413.305000", "130415.575000", "130417.845000", "130420.115000", "130422.385000", "130424.655000", "130426.925000", "130429.195000", "130431.465000", "130433.735000", "130436.005000", "130438.275000", "130440.545000", "130442.815000", "130445.085000", "130447.355000", "130449.625000", "130451.895000", "130454.165000", "130456.435000", "130458.705000", "130500.975000", "130503.245000", "130505.515000", "130507.785000", "130510.055000", "130512.325000", "130514.595000", "130516.865000", "130519.135000", "130521.405000", "130523.675000", "130525.945000", "130528.215000", "130530.485000", "130532.755000", "130535.025000", "130537.295000", "130539.565000", "130541.835000", "130544.105000", "130546.375000", "130548.645000", "130550.915000", "130553.185000", "130555.455000", "130557.725000", "130559.995000", "130602.265000", "130604.535000", "130606.805000", "130609.075000", "130611.345000", "130613.615000", "130615.885000", "130618.155000", "130620.425000", "130622.695000", "130624.965000", "130627.235000", "130629.505000", "130631.775000", "130634.045000", "130636.315000", "130638.585000", "130640.855000", "130643.125000", "130645.395000", "130647.665000", "130649.935000", "130652.205000", "130654.475000", "130656.745000", "130659.015000", "130701.285000", "130703.555000", "130705.825000", "130708.095000", "130710.365000", "130712.635000", "130714.905000", "130717.175000", "130719.445000", "130721.715000", "130723.985000", "130726.255000", "130728.525000", "130730.795000", "130733.065000", "130735.335000", "130737.605000", "130739.875000", "130742.145000", "130744.415000", "130746.685000", "130748.955000", "130751.225000", "130753.495000", "130755.765000", "130758.035000", "130800.305000", "130802.575000", "130804.845000", "130807.115000", "130809.385000", "130811.655000", "130813.925000", "130816.195000", "130818.465000", "130820.735000", "130823.005000", "130825.275000", "130827.545000", "130829.815000", "130832.085000", "130834.355000", "130836.625000", "130838.895000", "130841.165000", "130843.435000", "130845.705000", "130847.975000", "130850.245000", "130852.515000", "130854.785000"],
      "ContentTime": ["130316.773000", "130318.755000", "130321.255000", "130323.255000", "130325.755000", "130327.754000", "130330.254000", "130332.254000", "130334.754000", "130337.255000", "130339.255000", "130341.755000", "130343.755000", "130346.254000", "130348.254000", "130350.754000", "130352.755000", "130355.255000", "130357.255000", "130359.755000", "130401.754000", "130404.254000", "130406.754000", "130408.754000", "130411.255000", "130413.255000", "130415.755000", "130417.755000", "130420.254000", "130422.254000", "130424.754000", "130426.754000", "130429.255000", "130431.255000", "130433.755000", "130436.255000", "130438.254000", "130440.754000", "130442.754000", "130445.255000", "130447.255000", "130449.755000", "130451.755000", "130454.254000", "130456.254000", "130458.754000", "130501.254000", "130503.255000", "130505.755000", "130507.755000", "130510.255000", "130512.254000", "130514.754000", "130516.754000", "130519.254000", "130521.255000", "130523.755000", "130525.755000", "130528.255000", "130530.254000", "130532.754000", "130535.254000", "130537.255000", "130539.755000", "130541.755000", "130544.255000", "130546.255000", "130548.754000", "130550.754000", "130553.254000", "130555.255000", "130557.755000", "130559.755000", "130602.255000", "130604.754000", "130606.754000", "130609.254000", "130611.254000", "130613.755000", "130615.755000", "130618.255000", "130620.255000", "130622.754000", "130624.754000", "130627.254000", "130629.755000", "130631.755000", "130634.255000", "130636.255000", "130638.755000", "130640.754000", "130643.254000", "130645.254000", "130647.755000", "130649.755000", "130652.255000", "130654.755000", "130656.754000", "130659.254000", "130701.254000", "130703.754000", "130705.755000", "130708.255000", "130710.255000", "130712.755000", "130714.754000", "130717.254000", "130719.754000", "130721.754000", "130724.255000", "130726.255000", "130728.755000", "130730.755000", "130733.254000", "130735.254000", "130737.754000", "130739.755000", "130742.255000", "130744.255000", "130746.755000", "130749.254000", "130751.254000", "130753.754000", "130755.754000", "130758.255000", "130800.255000", "130802.755000", "130804.755000", "130807.254000", "130809.254000", "130811.754000", "130813.754000", "130816.255000", "130818.255000", "130820.755000", "130823.255000", "130825.254000", "130827.754000", "130829.754000", "130832.255000", "130834.255000", "130836.755000", "130838.755000", "130841.255000", "130843.254000", "130845.754000", "130848.254000", "130850.255000", "130852.755000", "130854.755000", "130857.255000"],
      "InstanceCreationTime": ["130316.773000", "130318.755000", "130321.255000", "130323.255000", "130325.755000", "130327.754000", "130330.254000", "130332.254000", "130334.754000", "130337.255000", "130339.255000", "130341.755000", "130343.755000", "130346.254000", "130348.254000", "130350.754000", "130352.755000", "130355.255000", "130357.255000", "130359.755000", "130401.754000", "130404.254000", "130406.754000", "130408.754000", "130411.255000", "130413.255000", "130415.755000", "130417.755000", "130420.254000", "130422.254000", "130424.754000", "130426.754000", "130429.255000", "130431.255000", "130433.755000", "130436.255000", "130438.254000", "130440.754000", "130442.754000", "130445.255000", "130447.255000", "130449.755000", "130451.755000", "130454.254000", "130456.254000", "130458.754000", "130501.254000", "130503.255000", "130505.755000", "130507.755000", "130510.255000", "130512.254000", "130514.754000", "130516.754000", "130519.254000", "130521.255000", "130523.755000", "130525.755000", "130528.255000", "130530.254000", "130532.754000", "130535.254000", "130537.255000", "130539.755000", "130541.755000", "130544.255000", "130546.255000", "130548.754000", "130550.754000", "130553.254000", "130555.255000", "130557.755000", "130559.755000", "130602.255000", "130604.754000", "130606.754000", "130609.254000", "130611.254000", "130613.755000", "130615.755000", "130618.255000", "130620.255000", "130622.754000", "130624.754000", "130627.254000", "130629.755000", "130631.755000", "130634.255000", "130636.255000", "130638.755000", "130640.754000", "130643.254000", "130645.254000", "130647.755000", "130649.755000", "130652.255000", "130654.755000", "130656.754000", "130659.254000", "130701.254000", "130703.754000", "130705.755000", "130708.255000", "130710.255000", "130712.755000", "130714.754000", "130717.254000", "130719.754000", "130721.754000", "130724.255000", "130726.255000", "130728.755000", "130730.755000", "130733.254000", "130735.254000", "130737.754000", "130739.755000", "130742.255000", "130744.255000", "130746.755000", "130749.254000", "130751.254000", "130753.754000", "130755.754000", "130758.255000", "130800.255000", "130802.755000", "130804.755000", "130807.254000", "130809.254000", "130811.754000", "130813.754000", "130816.255000", "130818.255000", "130820.755000", "130823.255000", "130825.254000", "130827.754000", "130829.754000", "130832.255000", "130834.255000", "130836.755000", "130838.755000", "130841.255000", "130843.254000", "130845.754000", "130848.254000", "130850.255000", "130852.755000", "130854.755000", "130857.255000"],
      "InstanceNumber": [1, 2, 3, 4, 5, 6, 7, 8, 9, 10, 11, 12, 13, 14, 15, 16, 17, 18, 19, 20, 21, 22, 23, 24, 25, 26, 27, 28, 29, 30, 31, 32, 33, 34, 35, 36, 37, 38, 39, 40, 41, 42, 43, 44, 45, 46, 47, 48, 49, 50, 51, 52, 53, 54, 55, 56, 57, 58, 59, 60, 61, 62, 63, 64, 65, 66, 67, 68, 69, 70, 71, 72, 73, 74, 75, 76, 77, 78, 79, 80, 81, 82, 83, 84, 85, 86, 87, 88, 89, 90, 91, 92, 93, 94, 95, 96, 97, 98, 99, 100, 101, 102, 103, 104, 105, 106, 107, 108, 109, 110, 111, 112, 113, 114, 115, 116, 117, 118, 119, 120, 121, 122, 123, 124, 125, 126, 127, 128, 129, 130, 131, 132, 133, 134, 135, 136, 137, 138, 139, 140, 141, 142, 143, 144, 145, 146, 147, 148, 149, 150, 151],
      "LargestImagePixelValue": [2176, 2349, 2226, 2319, 2347, 2341, 2344, 2364, 2364, 2358, 2362, 2334, 2292, 2303, 2335, 2356, 2357, 2333, 2292, 2296, 2295, 2299, 2304, 2318, 2328, 2331, 2335, 2349, 2328, 2327, 2327, 2300, 2311, 2328, 2347, 2320, 2312, 2287, 2314, 2323, 2352, 2337, 2332, 2321, 2298, 2268, 2292, 2302, 2327, 2336, 2318, 2333, 2343, 2362, 2336, 2339, 2328, 2279, 2274, 2296, 2307, 2316, 2322, 2321, 2321, 2322, 2321, 2305, 2335, 2336, 2334, 2341, 2332, 2335, 2336, 2332, 2301, 2290, 2314, 2330, 2283, 2281, 2318, 2342, 2347, 2355, 2358, 2366, 2366, 2362, 2348, 2334, 2324, 2310, 2309, 2302, 2323, 2321, 2335, 2283, 2291, 2203, 2217, 2244, 2280, 2278, 2278, 2303, 2276, 2277, 2293, 2303, 2299, 2305, 2293, 2288, 2288, 2300, 2292, 2294, 2345, 2361, 2342, 2298, 2267, 2274, 2288, 2299, 2307, 2318, 2322, 2329, 2328, 2321, 2296, 2277, 2280, 2281, 2282, 2295, 2321, 2329, 2331, 2323, 2305, 2292, 2293, 2285, 2372, 2307, 2270],
      "WindowCenter": [648.0, 654.0, 646.0, 645.0, 646.0, 646.0, 646.0, 647.0, 646.0, 645.0, 644.0, 643.0, 642.0, 642.0, 645.0, 646.0, 645.0, 641.0, 638.0, 639.0, 640.0, 642.0, 644.0, 646.0, 646.0, 645.0, 645.0, 645.0, 644.0, 643.0, 644.0, 643.0, 643.0, 644.0, 646.0, 645.0, 644.0, 643.0, 644.0, 645.0, 646.0, 646.0, 644.0, 643.0, 642.0, 641.0, 643.0, 645.0, 644.0, 644.0, 644.0, 644.0, 644.0, 642.0, 638.0, 637.0, 637.0, 635.0, 636.0, 639.0, 641.0, 642.0, 643.0, 644.0, 643.0, 643.0, 644.0, 644.0, 646.0, 646.0, 646.0, 646.0, 646.0, 645.0, 643.0, 641.0, 639.0, 640.0, 643.0, 645.0, 645.0, 645.0, 647.0, 646.0, 645.0, 645.0, 646.0, 646.0, 646.0, 645.0, 643.0, 642.0, 642.0, 642.0, 643.0, 643.0, 644.0, 644.0, 644.0, 644.0, 643.0, 641.0, 641.0, 642.0, 644.0, 645.0, 644.0, 645.0, 643.0, 642.0, 642.0, 642.0, 642.0, 642.0, 641.0, 641.0, 642.0, 643.0, 643.0, 643.0, 643.0, 646.0, 644.0, 639.0, 636.0, 639.0, 642.0, 643.0, 644.0, 644.0, 643.0, 643.0, 643.0, 642.0, 640.0, 641.0, 641.0, 642.0, 642.0, 643.0, 645.0, 645.0, 645.0, 643.0, 642.0, 643.0, 643.0, 644.0, 648.0, 642.0, 643.0],
      "WindowWidth": [1411.0, 1428.0, 1405.0, 1404.0, 1405.0, 1406.0, 1406.0, 1407.0, 1406.0, 1403.0, 1400.0, 1398.0, 1396.0, 1396.0, 1402.0, 1405.0, 1402.0, 1391.0, 1384.0, 1386.0, 1390.0, 1394.0, 1399.0, 1405.0, 1405.0, 1403.0, 1403.0, 1403.0, 1400.0, 1398.0, 1400.0, 1397.0, 1397.0, 1400.0, 1405.0, 1402.0, 1399.0, 1398.0, 1400.0, 1403.0, 1406.0, 1405.0, 1401.0, 1397.0, 1395.0, 1393.0, 1397.0, 1402.0, 1401.0, 1400.0, 1399.0, 1401.0, 1400.0, 1394.0, 1382.0, 1382.0, 1381.0, 1377.0, 1377.0, 1386.0, 1392.0, 1394.0, 1398.0, 1400.0, 1398.0, 1398.0, 1400.0, 1401.0, 1405.0, 1406.0, 1407.0, 1407.0, 1406.0, 1402.0, 1398.0, 1392.0, 1385.0, 1388.0, 1397.0, 1403.0, 1402.0, 1403.0, 1407.0, 1406.0, 1403.0, 1403.0, 1404.0, 1406.0, 1406.0, 1403.0, 1397.0, 1394.0, 1394.0, 1394.0, 1396.0, 1398.0, 1399.0, 1399.0, 1400.0, 1400.0, 1399.0, 1392.0, 1391.0, 1395.0, 1400.0, 1402.0, 1401.0, 1403.0, 1399.0, 1396.0, 1395.0, 1394.0, 1395.0, 1394.0, 1391.0, 1391.0, 1395.0, 1397.0, 1398.0, 1398.0, 1398.0, 1404.0, 1399.0, 1385.0, 1378.0, 1386.0, 1393.0, 1397.0, 1399.0, 1399.0, 1397.0, 1398.0, 1397.0, 1393.0, 1390.0, 1391.0, 1392.0, 1393.0, 1394.0, 1398.0, 1402.0, 1404.0, 1402.0, 1397.0, 1394.0, 1396.0, 1397.0, 1400.0, 1411.0, 1395.0, 1397.0]
    },
    "slices": {}
  }
}