{
  "AcquisitionMatrixPE": 74,
  "AcquisitionNumber": 1,
  "AcquisitionTime": "11:21:38.027500",
  "BandwidthPerPixelPhaseEncode": 25.497,
  "BaseResolution": 74,
  "BodyPartExamined": "BRAIN",
  "CoilCombinationMethod": "Sum of Squares",
  "ConsistencyInfo": "N4_VE11C_LATEST_20160120",
  "ConversionSoftware": "dcm2niix",
  "ConversionSoftwareVersion": "v1.0.20220720",
  "DerivedVendorReportedEchoSpacing": 0.000530004,
  "DeviceSerialNumber": "66018",
  "DwellTime": 3e-06,
  "EchoTime": 0.028,
  "EchoTrainLength": 74,
  "EffectiveEchoSpacing": 0.000530004,
  "FlipAngle": 80,
  "HeudiconvVersion": "0.12.2",
  "ImageOrientationPatientDICOM": [0.997648, -0.0467248, 0.0501622, 0.0496659, 0.997017, -0.0590817],
  "ImageOrientationText": "Tra>Cor(-3.5)>Sag(2.7)",
  "ImageType": [
    "ORIGINAL",
    "PRIMARY",
    "M",
    "ND",
    "MOSAIC"
],
  "ImagingFrequency": 123.167,
  "InPlanePhaseEncodingDirectionDICOM": "COL",
  "InstitutionAddress": "Stadium 1952,Princeton,NJ,US,08544",
  "InstitutionName": "Princeton University",
  "InstitutionalDepartmentName": "NeuroScience",
  "MRAcquisitionType": "2D",
  "MagneticFieldStrength": 3,
  "Manufacturer": "Siemens",
  "ManufacturersModelName": "Prisma",
  "Modality": "MR",
  "MultibandAccelerationFactor": 2,
  "NonlinearGradientCorrection": false,
  "PartialFourier": 1,
  "PatientPosition": "HFS",
  "PercentPhaseFOV": 100,
  "PercentSampling": 100,
  "PhaseEncodingDirection": "j-",
  "PhaseEncodingSteps": 74,
  "PhaseResolution": 1,
  "PixelBandwidth": 2250,
  "ProcedureStepDescription": "NormaL_Robert^Tangrams",
  "ProtocolName": "func_task-PostExposure_run-01",
  "PulseSequenceDetails": "%SiemensSeq%\\ep2d_bold",
  "ReceiveCoilActiveElements": "HC1-7",
  "ReceiveCoilName": "HeadNeck_64",
  "ReconMatrixPE": 74,
  "RefLinesPE": 12,
  "RepetitionTime": 1.5,
  "SAR": 0.0454376,
  "ScanOptions": "FS",
  "ScanningSequence": "EP",
  "SequenceName": "*epfid2d1_74",
  "SequenceVariant": "SK",
  "SeriesDescription": "func_task-PostExposure_run-01",
  "SeriesNumber": 16,
  "ShimSetting": [735, 517, 2082, 622, -62, 104, 88, 91],
  "SliceThickness": 3,
  "SliceTiming": [0.71, 0, 0.7725, 0.065, 0.8375, 0.13, 0.9025, 0.195, 0.9675, 0.2575, 1.03, 0.3225, 1.095, 0.3875, 1.16, 0.4525, 1.2225, 0.515, 1.2875, 0.58, 1.3525, 0.645, 1.4175, 0.71, 0, 0.7725, 0.065, 0.8375, 0.13, 0.9025, 0.195, 0.9675, 0.2575, 1.03, 0.3225, 1.095, 0.3875, 1.16, 0.4525, 1.2225, 0.515, 1.2875, 0.58, 1.3525, 0.645, 1.4175],
  "SoftwareVersions": "syngo MR E11",
  "SpacingBetweenSlices": 3,
  "StationName": "AWP66018",
  "TaskName": "PostExposure",
  "TotalReadoutTime": 0.0386903,
  "TxRefAmp": 215.09,
  "dcmmeta_affine": [
    [-2.9929425716400146, 0.14899764955043793, 0.14175596833229065, 103.76818084716797],
    [0.1401742845773697, 2.9910507202148438, -0.18430215120315552, -104.22067260742188],
    [0.15048661828041077, 0.17724508047103882, 2.990976095199585, -71.77069091796875],
    [0.0, 0.0, 0.0, 1.0]
],
  "dcmmeta_reorient_transform": [
    [0.0, -1.0, 0.0, 73.0],
    [1.0, 0.0, 0.0, 0.0],
    [0.0, 0.0, 1.0, 0.0],
    [0.0, 0.0, 0.0, 1.0]
],
  "dcmmeta_shape": [74, 74, 46, 175],
  "dcmmeta_slice_dim": 2,
  "dcmmeta_version": 0.6,
  "global": {
    "const": {
      "AcquisitionMatrix": [74, 0, 0, 74],
      "AngioFlag": "N",
      "BitsAllocated": 16,
      "BitsStored": 12,
      "BodyPartExamined": "BRAIN",
      "Columns": 518,
      "EchoNumbers": 1,
      "EchoTime": 28.0,
      "EchoTrainLength": 74,
      "FlipAngle": 80.0,
      "HighBit": 11,
      "ImageOrientationPatient": [0.99764750771833, -0.0467247614033, 0.05016220704087, 0.049665882388, 0.99701687738135, -0.0590816921166],
      "ImagePositionPatient": [-812.15572477569, -747.02057076409, -52.891425177965],
      "ImageType": [
        "ORIGINAL",
        "PRIMARY",
        "M",
        "ND",
        "MOSAIC"
],
      "ImagedNucleus": "1H",
      "ImagingFrequency": 123.167495,
      "InPlanePhaseEncodingDirection": "COL",
      "MRAcquisitionType": "2D",
      "MagneticFieldStrength": 3.0,
      "Manufacturer": "SIEMENS",
      "ManufacturerModelName": "Prisma",
      "Modality": "MR",
      "NumberOfAverages": 1.0,
      "NumberOfPhaseEncodingSteps": 74,
      "PercentPhaseFieldOfView": 100.0,
      "PercentSampling": 100.0,
      "PerformedProcedureStepStartTime": "090658.405000",
      "PhotometricInterpretation": "MONOCHROME2",
      "PixelBandwidth": 2250.0,
      "PixelRepresentation": 0,
      "PixelSpacing": [3.0, 3.0],
      "ProtocolName": "func_task-PostExposure_run-01",
      "RepetitionTime": 1500.0,
      "Rows": 518,
      "SAR": 0.04543762655914,
      "SamplesPerPixel": 1,
      "ScanOptions": "FS",
      "ScanningSequence": "EP",
      "SequenceName": "*epfid2d1_74",
      "SequenceVariant": "SK",
      "SeriesDescription": "func_task-PostExposure_run-01",
      "SeriesNumber": 16,
      "SeriesTime": "112140.337000",
      "SliceLocation": -60.248857364762,
      "SliceThickness": 3.0,
      "SmallestImagePixelValue": 0,
      "SoftwareVersions": "syngo MR E11",
      "SpacingBetweenSlices": 2.9999999478862,
      "SpecificCharacterSet": "ISO_IR 100",
      "StudyID": "1",
      "StudyTime": "090658.257000",
      "TransmitCoilName": "Body",
      "VariableFlipAngleFlag": "N",
      "WindowCenterWidthExplanation": "Algo1",
      "dBdt": 0.0},
    "slices": {}
  },
  "time": {
    "samples": {
      "AcquisitionNumber": [1, 2, 3, 4, 5, 6, 7, 8, 9, 10, 11, 12, 13, 14, 15, 16, 17, 18, 19, 20, 21, 22, 23, 24, 25, 26, 27, 28, 29, 30, 31, 32, 33, 34, 35, 36, 37, 38, 39, 40, 41, 42, 43, 44, 45, 46, 47, 48, 49, 50, 51, 52, 53, 54, 55, 56, 57, 58, 59, 60, 61, 62, 63, 64, 65, 66, 67, 68, 69, 70, 71, 72, 73, 74, 75, 76, 77, 78, 79, 80, 81, 82, 83, 84, 85, 86, 87, 88, 89, 90, 91, 92, 93, 94, 95, 96, 97, 98, 99, 100, 101, 102, 103, 104, 105, 106, 107, 108, 109, 110, 111, 112, 113, 114, 115, 116, 117, 118, 119, 120, 121, 122, 123, 124, 125, 126, 127, 128, 129, 130, 131, 132, 133, 134, 135, 136, 137, 138, 139, 140, 141, 142, 143, 144, 145, 146, 147, 148, 149, 150, 151, 152, 153, 154, 155, 156, 157, 158, 159, 160, 161, 162, 163, 164, 165, 166, 167, 168, 169, 170, 171, 172, 173, 174, 175],
      "AcquisitionTime": ["112138.027500", "112139.527500", "112141.027500", "112142.527500", "112144.027500", "112145.527500", "112147.027500", "112148.527500", "112150.027500", "112151.527500", "112153.027500", "112154.527500", "112156.027500", "112157.527500", "112159.027500", "112200.527500", "112202.027500", "112203.527500", "112205.027500", "112206.527500", "112208.027500", "112209.527500", "112211.027500", "112212.527500", "112214.027500", "112215.527500", "112217.027500", "112218.527500", "112220.027500", "112221.527500", "112223.027500", "112224.527500", "112226.027500", "112227.527500", "112229.027500", "112230.527500", "112232.027500", "112233.527500", "112235.027500", "112236.527500", "112238.027500", "112239.527500", "112241.027500", "112242.527500", "112244.027500", "112245.527500", "112247.027500", "112248.527500", "112250.027500", "112251.527500", "112253.027500", "112254.527500", "112256.027500", "112257.527500", "112259.027500", "112300.527500", "112302.027500", "112303.527500", "112305.027500", "112306.527500", "112308.027500", "112309.527500", "112311.027500", "112312.527500", "112314.027500", "112315.527500", "112317.027500", "112318.527500", "112320.027500", "112321.527500", "112323.027500", "112324.527500", "112326.027500", "112327.527500", "112329.027500", "112330.527500", "112332.027500", "112333.527500", "112335.027500", "112336.527500", "112338.027500", "112339.527500", "112341.027500", "112342.527500", "112344.027500", "112345.527500", "112347.027500", "112348.527500", "112350.027500", "112351.527500", "112353.027500", "112354.527500", "112356.027500", "112357.527500", "112359.027500", "112400.527500", "112402.027500", "112403.527500", "112405.027500", "112406.527500", "112408.027500", "112409.527500", "112411.027500", "112412.527500", "112414.027500", "112415.527500", "112417.027500", "112418.527500", "112420.027500", "112421.527500", "112423.027500", "112424.527500", "112426.027500", "112427.527500", "112429.027500", "112430.527500", "112432.027500", "112433.527500", "112435.027500", "112436.527500", "112438.027500", "112439.527500", "112441.027500", "112442.527500", "112444.027500", "112445.527500", "112447.027500", "112448.527500", "112450.027500", "112451.527500", "112453.027500", "112454.527500", "112456.027500", "112457.527500", "112459.027500", "112500.527500", "112502.027500", "112503.527500", "112505.027500", "112506.527500", "112508.027500", "112509.527500", "112511.027500", "112512.527500", "112514.027500", "112515.527500", "112517.027500", "112518.527500", "112520.027500", "112521.527500", "112523.027500", "112524.527500", "112526.027500", "112527.527500", "112529.027500", "112530.527500", "112532.027500", "112533.527500", "112535.027500", "112536.527500", "112538.027500", "112539.527500", "112541.027500", "112542.527500", "112544.027500", "112545.527500", "112547.027500", "112548.527500", "112550.027500", "112551.527500", "112553.027500", "112554.527500", "112556.027500", "112557.527500", "112559.027500"],
      "ContentTime": ["112140.340000", "112141.836000", "112143.336000", "112144.836000", "112146.335000", "112147.837000", "112149.337000", "112150.837000", "112152.336000", "112153.836000", "112155.335000", "112156.836000", "112158.335000", "112159.836000", "112201.335000", "112202.836000", "112204.336000", "112205.837000", "112207.336000", "112208.837000", "112210.335000", "112211.836000", "112213.336000", "112214.836000", "112216.336000", "112217.836000", "112219.336000", "112220.836000", "112222.336000", "112223.837000", "112225.337000", "112226.836000", "112228.336000", "112229.836000", "112231.335000", "112232.836000", "112234.336000", "112235.836000", "112237.335000", "112238.836000", "112240.336000", "112241.837000", "112243.337000", "112244.836000", "112246.336000", "112247.836000", "112249.336000", "112250.836000", "112252.336000", "112253.836000", "112255.335000", "112256.836000", "112258.336000", "112259.837000", "112301.337000", "112302.836000", "112304.336000", "112305.836000", "112307.336000", "112308.836000", "112310.336000", "112311.836000", "112313.336000", "112314.837000", "112316.337000", "112317.837000", "112319.336000", "112320.836000", "112322.336000", "112323.836000", "112325.335000", "112326.836000", "112328.336000", "112329.836000", "112331.336000", "112332.837000", "112334.337000", "112335.837000", "112337.336000", "112338.837000", "112340.336000", "112341.836000", "112343.336000", "112344.837000", "112346.336000", "112347.836000", "112349.336000", "112350.837000", "112352.337000", "112353.837000", "112355.335000", "112356.836000", "112358.336000", "112359.836000", "112401.336000", "112402.836000", "112404.336000", "112405.836000", "112407.336000", "112408.837000", "112410.337000", "112411.836000", "112413.336000", "112414.836000", "112416.336000", "112417.836000", "112419.336000", "112420.836000", "112422.336000", "112423.836000", "112425.337000", "112426.837000", "112428.337000", "112429.836000", "112431.336000", "112432.836000", "112434.336000", "112435.836000", "112437.336000", "112438.836000", "112440.336000", "112441.836000", "112443.337000", "112444.837000", "112446.337000", "112447.836000", "112449.336000", "112450.836000", "112452.336000", "112453.836000", "112455.336000", "112456.836000", "112458.336000", "112459.837000", "112501.337000", "112502.837000", "112504.336000", "112505.856000", "112507.336000", "112508.836000", "112510.335000", "112511.836000", "112513.336000", "112514.836000", "112516.336000", "112517.837000", "112519.337000", "112520.837000", "112522.336000", "112523.836000", "112525.336000", "112526.836000", "112528.336000", "112529.836000", "112531.336000", "112532.836000", "112534.336000", "112535.837000", "112537.337000", "112538.837000", "112540.336000", "112541.836000", "112543.336000", "112544.836000", "112546.336000", "112547.836000", "112549.336000", "112550.836000", "112552.337000", "112553.837000", "112555.337000", "112556.836000", "112558.336000", "112559.836000", "112601.322000"],
      "InstanceCreationTime": ["112140.340000", "112141.836000", "112143.336000", "112144.836000", "112146.335000", "112147.837000", "112149.337000", "112150.837000", "112152.336000", "112153.836000", "112155.335000", "112156.836000", "112158.335000", "112159.836000", "112201.335000", "112202.836000", "112204.336000", "112205.837000", "112207.336000", "112208.837000", "112210.335000", "112211.836000", "112213.336000", "112214.836000", "112216.336000", "112217.836000", "112219.336000", "112220.836000", "112222.336000", "112223.837000", "112225.337000", "112226.836000", "112228.336000", "112229.836000", "112231.335000", "112232.836000", "112234.336000", "112235.836000", "112237.335000", "112238.836000", "112240.336000", "112241.837000", "112243.337000", "112244.836000", "112246.336000", "112247.836000", "112249.336000", "112250.836000", "112252.336000", "112253.836000", "112255.335000", "112256.836000", "112258.336000", "112259.837000", "112301.337000", "112302.836000", "112304.336000", "112305.836000", "112307.336000", "112308.836000", "112310.336000", "112311.836000", "112313.336000", "112314.837000", "112316.337000", "112317.837000", "112319.336000", "112320.836000", "112322.336000", "112323.836000", "112325.335000", "112326.836000", "112328.336000", "112329.836000", "112331.336000", "112332.837000", "112334.337000", "112335.837000", "112337.336000", "112338.837000", "112340.336000", "112341.836000", "112343.336000", "112344.837000", "112346.336000", "112347.836000", "112349.336000", "112350.837000", "112352.337000", "112353.837000", "112355.335000", "112356.836000", "112358.336000", "112359.836000", "112401.336000", "112402.836000", "112404.336000", "112405.836000", "112407.336000", "112408.837000", "112410.337000", "112411.836000", "112413.336000", "112414.836000", "112416.336000", "112417.836000", "112419.336000", "112420.836000", "112422.336000", "112423.836000", "112425.337000", "112426.837000", "112428.337000", "112429.836000", "112431.336000", "112432.836000", "112434.336000", "112435.836000", "112437.336000", "112438.836000", "112440.336000", "112441.836000", "112443.337000", "112444.837000", "112446.337000", "112447.836000", "112449.336000", "112450.836000", "112452.336000", "112453.836000", "112455.336000", "112456.836000", "112458.336000", "112459.837000", "112501.337000", "112502.837000", "112504.336000", "112505.856000", "112507.336000", "112508.836000", "112510.335000", "112511.836000", "112513.336000", "112514.836000", "112516.336000", "112517.837000", "112519.337000", "112520.837000", "112522.336000", "112523.836000", "112525.336000", "112526.836000", "112528.336000", "112529.836000", "112531.336000", "112532.836000", "112534.336000", "112535.837000", "112537.337000", "112538.837000", "112540.336000", "112541.836000", "112543.336000", "112544.836000", "112546.336000", "112547.836000", "112549.336000", "112550.836000", "112552.337000", "112553.837000", "112555.337000", "112556.836000", "112558.336000", "112559.836000", "112601.322000"],
      "InstanceNumber": [1, 2, 3, 4, 5, 6, 7, 8, 9, 10, 11, 12, 13, 14, 15, 16, 17, 18, 19, 20, 21, 22, 23, 24, 25, 26, 27, 28, 29, 30, 31, 32, 33, 34, 35, 36, 37, 38, 39, 40, 41, 42, 43, 44, 45, 46, 47, 48, 49, 50, 51, 52, 53, 54, 55, 56, 57, 58, 59, 60, 61, 62, 63, 64, 65, 66, 67, 68, 69, 70, 71, 72, 73, 74, 75, 76, 77, 78, 79, 80, 81, 82, 83, 84, 85, 86, 87, 88, 89, 90, 91, 92, 93, 94, 95, 96, 97, 98, 99, 100, 101, 102, 103, 104, 105, 106, 107, 108, 109, 110, 111, 112, 113, 114, 115, 116, 117, 118, 119, 120, 121, 122, 123, 124, 125, 126, 127, 128, 129, 130, 131, 132, 133, 134, 135, 136, 137, 138, 139, 140, 141, 142, 143, 144, 145, 146, 147, 148, 149, 150, 151, 152, 153, 154, 155, 156, 157, 158, 159, 160, 161, 162, 163, 164, 165, 166, 167, 168, 169, 170, 171, 172, 173, 174, 175],
      "LargestImagePixelValue": [2091, 2094, 2094, 2104, 2107, 2120, 2134, 2122, 2125, 2102, 2103, 2096, 2117, 2117, 2144, 2128, 2142, 2125, 2100, 2073, 2093, 2110, 2102, 2128, 2119, 2137, 2123, 2136, 2140, 2129, 2121, 2108, 2086, 2096, 2116, 2095, 2125, 2099, 2111, 2103, 2107, 2109, 2104, 2108, 2107, 2116, 2117, 2109, 2115, 2113, 2122, 2139, 2128, 2133, 2117, 2098, 2108, 2086, 2089, 2101, 2125, 2122, 2119, 2123, 2130, 2145, 2127, 2119, 2116, 2126, 2115, 2115, 2112, 2112, 2127, 2141, 2122, 2099, 2105, 2105, 2110, 2098, 2110, 2123, 2120, 2108, 2124, 2109, 2123, 2105, 2125, 2120, 2126, 2124, 2111, 2109, 2118, 2130, 2156, 2127, 2127, 2097, 2114, 2121, 2140, 2121, 2139, 2142, 2160, 2149, 2135, 2149, 2120, 2136, 2122, 2129, 2133, 2148, 2152, 2138, 2141, 2115, 2125, 2130, 2153, 2134, 2158, 2124, 2144, 2150, 2157, 2160, 2160, 2144, 2135, 2096, 2133, 2108, 2151, 2142, 2171, 2156, 2183, 2166, 2176, 2184, 2175, 2179, 2154, 2122, 2152, 2152, 2147, 2168, 2163, 2142, 2156, 2153, 2163, 2171, 2181, 2193, 2163, 2165, 2150, 2169, 2140, 2149, 2141, 2143, 2128, 2153, 2112, 2135, 2123],
      "WindowCenter": [642.0, 641.0, 642.0, 642.0, 641.0, 642.0, 643.0, 643.0, 643.0, 642.0, 643.0, 642.0, 643.0, 643.0, 643.0, 642.0, 642.0, 642.0, 642.0, 642.0, 642.0, 642.0, 642.0, 642.0, 642.0, 642.0, 642.0, 643.0, 644.0, 643.0, 642.0, 641.0, 640.0, 641.0, 643.0, 643.0, 643.0, 642.0, 642.0, 641.0, 642.0, 641.0, 641.0, 641.0, 641.0, 642.0, 643.0, 643.0, 643.0, 642.0, 642.0, 643.0, 642.0, 643.0, 643.0, 642.0, 641.0, 641.0, 641.0, 642.0, 643.0, 643.0, 643.0, 643.0, 643.0, 644.0, 643.0, 643.0, 643.0, 643.0, 643.0, 643.0, 643.0, 643.0, 643.0, 643.0, 643.0, 642.0, 642.0, 642.0, 643.0, 642.0, 642.0, 642.0, 643.0, 642.0, 643.0, 642.0, 641.0, 640.0, 641.0, 641.0, 643.0, 643.0, 643.0, 643.0, 643.0, 643.0, 644.0, 643.0, 642.0, 641.0, 643.0, 644.0, 645.0, 643.0, 644.0, 644.0, 644.0, 644.0, 644.0, 644.0, 644.0, 644.0, 643.0, 642.0, 643.0, 644.0, 645.0, 644.0, 643.0, 642.0, 641.0, 642.0, 643.0, 643.0, 644.0, 643.0, 642.0, 642.0, 642.0, 642.0, 643.0, 643.0, 643.0, 641.0, 641.0, 640.0, 642.0, 642.0, 644.0, 643.0, 644.0, 644.0, 644.0, 644.0, 643.0, 643.0, 643.0, 643.0, 643.0, 642.0, 643.0, 645.0, 645.0, 643.0, 642.0, 642.0, 643.0, 644.0, 644.0, 644.0, 643.0, 642.0, 642.0, 643.0, 643.0, 644.0, 644.0, 644.0, 643.0, 643.0, 642.0, 642.0, 641.0],
      "WindowWidth": [1381.0, 1379.0, 1380.0, 1380.0, 1379.0, 1380.0, 1383.0, 1383.0, 1384.0, 1383.0, 1383.0, 1382.0, 1383.0, 1383.0, 1384.0, 1381.0, 1381.0, 1381.0, 1381.0, 1380.0, 1381.0, 1381.0, 1380.0, 1381.0, 1380.0, 1382.0, 1382.0, 1385.0, 1387.0, 1384.0, 1381.0, 1378.0, 1378.0, 1379.0, 1383.0, 1383.0, 1383.0, 1381.0, 1381.0, 1380.0, 1381.0, 1380.0, 1380.0, 1379.0, 1380.0, 1382.0, 1383.0, 1383.0, 1383.0, 1382.0, 1383.0, 1383.0, 1382.0, 1384.0, 1384.0, 1381.0, 1380.0, 1378.0, 1380.0, 1381.0, 1384.0, 1384.0, 1384.0, 1384.0, 1384.0, 1386.0, 1384.0, 1384.0, 1384.0, 1384.0, 1385.0, 1384.0, 1384.0, 1383.0, 1384.0, 1385.0, 1383.0, 1381.0, 1382.0, 1382.0, 1384.0, 1382.0, 1381.0, 1382.0, 1383.0, 1382.0, 1383.0, 1381.0, 1379.0, 1376.0, 1378.0, 1380.0, 1383.0, 1384.0, 1382.0, 1382.0, 1384.0, 1384.0, 1386.0, 1384.0, 1381.0, 1379.0, 1383.0, 1386.0, 1388.0, 1385.0, 1385.0, 1385.0, 1386.0, 1386.0, 1386.0, 1387.0, 1387.0, 1387.0, 1383.0, 1382.0, 1383.0, 1385.0, 1387.0, 1386.0, 1382.0, 1380.0, 1379.0, 1381.0, 1383.0, 1383.0, 1386.0, 1384.0, 1381.0, 1380.0, 1380.0, 1382.0, 1383.0, 1382.0, 1382.0, 1379.0, 1378.0, 1377.0, 1381.0, 1382.0, 1385.0, 1384.0, 1386.0, 1385.0, 1386.0, 1385.0, 1384.0, 1384.0, 1384.0, 1384.0, 1384.0, 1382.0, 1384.0, 1387.0, 1388.0, 1384.0, 1381.0, 1380.0, 1383.0, 1385.0, 1385.0, 1386.0, 1382.0, 1382.0, 1382.0, 1384.0, 1384.0, 1385.0, 1385.0, 1385.0, 1384.0, 1383.0, 1381.0, 1382.0, 1379.0]
    },
    "slices": {}
  }
}